mav1,rms1,zc1,wl1,ssc1,mav_slope1,ar_coeff1,psd1,mav2,rms2,zc2,wl2,ssc2,mav_slope2,ar_coeff2,psd2,label
5.449,12.5840772407038,0.338,6548,0.391,6.55455455455456,0.303241153484432,0.17578125,11.741,24.7658030356377,0.349,14600,0.418,14.6146146146146,0.207416022472474,0.1640625,back
4.612,10.6693017578471,0.357,5964,0.416,5.96996996996997,0.217799575417418,0.25,9.656,18.4766880149014,0.3715,12302,0.415,12.3143143143143,0.208439213071075,0.18359375,back
4.877,12.8387304668336,0.324,6236,0.387,6.24224224224224,0.22645264685856,0.1875,10.813,19.5265716396914,0.3685,13645,0.426,13.6586586586587,0.200727787111911,0.2578125,back
5.682,14.4933088009605,0.35,7238,0.399,7.24524524524525,0.200817740034273,0.1953125,14.662,25.2924099286723,0.3865,18762,0.4345,18.7807807807808,0.197062029092542,0.23046875,back
5.984,13.6925527203659,0.365,7434,0.4215,7.44144144144144,0.234635597736382,0.1796875,10.148,18.973349730609,0.3725,12817,0.4295,12.8298298298298,0.217678519457574,0.20703125,back
5.913,12.6353868163978,0.3965,7579,0.4625,7.58658658658659,0.229557927359995,0.1640625,14.272,25.8534717204479,0.3785,18213,0.423,18.2312312312312,0.196994728238529,0.24609375,back
5.587,13.136552059045,0.3925,6944,0.4385,6.95095095095095,0.232515238642471,0.1640625,12.856,24.6626032689171,0.379,17294,0.425,17.3113113113113,0.163131291174899,0.2734375,back
6.363,13.7014962686562,0.4045,7995,0.45,8.003003003003,0.238347274109071,0.19140625,15.621,28.7810527951984,0.369,19400,0.4345,19.4194194194194,0.240334716566001,0.1796875,back
5.472,12.8670120851735,0.378,7040,0.44,7.04704704704705,0.230425781347887,0.21484375,12.164,23.1716637296505,0.3615,16010,0.4075,16.026026026026,0.161836297750748,0.234375,back
5.857,14.8809609904737,0.3595,7320,0.4245,7.32732732732733,0.270019318589822,0.1640625,16.18,32.3633125622208,0.368,21413,0.42,21.4344344344344,0.204291768754317,0.23828125,back
5.433,12.4935583402008,0.3895,7041,0.4395,7.04804804804805,0.227298150563434,0.19921875,15.195,28.9694494252134,0.3585,19514,0.4265,19.5335335335335,0.193954930685745,0.25390625,back
4.913,10.2706864424925,0.3905,6299,0.4395,6.30530530530531,0.220500104990073,0.1875,15.202,26.5527023106877,0.3805,19633,0.426,19.6526526526527,0.181986346075225,0.19921875,back
6.876,16.0751360802949,0.3565,8609,0.4075,8.61761761761762,0.251538098597178,0.2265625,17.146,32.032764476392,0.3895,22471,0.44,22.4934934934935,0.169404688250705,0.265625,back
4.56,10.3344085462111,0.328,5652,0.3895,5.65765765765766,0.279031688263661,0.16796875,9.133,18.3556258405972,0.312,11456,0.3685,11.4674674674675,0.226480575399491,0.1875,back
4.713,9.69159429608978,0.376,6068,0.44,6.07407407407407,0.246658668481409,0.16796875,9.9,22.5652387534455,0.296,13036,0.35,13.049049049049,0.170893010913542,0.26953125,back
4.705,11.9285791274569,0.3655,5938,0.428,5.94394394394394,0.250367003045909,0.203125,10.14,21.9153827253826,0.3285,12871,0.3755,12.8838838838839,0.177198784029232,0.265625,back
4.221,8.3379254014413,0.366,5451,0.433,5.45645645645646,0.205978179935686,0.20703125,12.554,22.783810041343,0.338,15446,0.397,15.4614614614615,0.221176360958397,0.203125,back
5.213,11.9886196036074,0.3545,6479,0.411,6.48548548548549,0.248716002434523,0.1640625,6.368,15.5542920121746,0.2885,8401,0.3635,8.40940940940941,0.19167943312696,0.1953125,back
3.539,7.04279773953505,0.3665,4446,0.4215,4.45045045045045,0.289147260789696,0.203125,10.495,21.6723095215992,0.3145,13693,0.3715,13.7067067067067,0.187916434581518,0.23046875,back
3.208,5.99816638648846,0.3945,4381,0.455,4.38538538538539,0.156484004612252,0.1953125,12.019,24.3742692198146,0.314,15608,0.365,15.6236236236236,0.109796918223502,0.2734375,back
4.907,10.0511193406506,0.386,6234,0.442,6.24024024024024,0.238812107324439,0.1796875,11.158,23.9093705479672,0.3285,14419,0.3835,14.4334334334334,0.1862014794186,0.21484375,back
5.2,10.95116432166,0.3955,6546,0.4525,6.55255255255255,0.232481826177336,0.2265625,13.366,26.0895764626412,0.3365,16973,0.3855,16.98998998999,0.193952146139727,0.25390625,back
4.904,8.56434469180217,0.4235,6481,0.4665,6.48748748748749,0.189710815290962,0.19140625,17.555,31.7401165719346,0.34,21678,0.405,21.6996996996997,0.217153152773392,0.234375,back
4.992,11.3718951806636,0.3905,6201,0.4455,6.20720720720721,0.239215463985279,0.19921875,18.412,35.773957007857,0.352,24406,0.404,24.4304304304304,0.156436656419001,0.19140625,back
5.64,12.358883444713,0.3655,7136,0.426,7.14314314314314,0.251850966209021,0.25390625,11.126,19.4199382079346,0.3655,14035,0.4145,14.0490490490491,0.209843731215455,0.18359375,back
6.096,13.9409468831927,0.3185,7865,0.376,7.87287287287287,0.17541478452732,0.2421875,9.195,15.3741015997684,0.3885,11785,0.442,11.7967967967968,0.231587777651913,0.1796875,back
3.659,6.92856406479727,0.377,4809,0.445,4.81381381381381,0.186975118554585,0.20703125,9.139,19.7493037851971,0.3545,11131,0.399,11.1421421421421,0.279063219001004,0.16015625,back
5.507,9.49836828092068,0.368,6925,0.4175,6.93193193193193,0.219631598294927,0.19921875,1.667,5.43829017247149,0.3165,2288,0.387,2.29029029029029,0.134749158328024,0.20703125,back
4.821,8.45582639367673,0.379,6189,0.43,6.1951951951952,0.202283658150814,0.19921875,11.218,20.3950974501227,0.364,14178,0.415,14.1921921921922,0.216354907801538,0.1640625,back
5.312,8.83877819610833,0.407,6921,0.464,6.92792792792793,0.173035879643214,0.1953125,3.169,10.4026438947029,0.2585,3891,0.3365,3.89489489489489,0.259745807986075,0.15234375,back
3.092,5.87196730236128,0.397,4054,0.452,4.05805805805806,0.231711642344486,0.24609375,13.929,26.3289764328202,0.3565,17613,0.412,17.6306306306306,0.205642377974575,0.1796875,back
5.255,9.03321648140905,0.401,6810,0.446,6.81681681681682,0.219754631292268,0.1796875,13.603,27.362949402431,0.385,18530,0.437,18.5485485485486,0.117809735817669,0.23046875,back
1.574,4.19285105864733,0.2375,2059,0.286,2.06106106106106,0.264219807265566,0.171875,10.172,21.678007288494,0.395,12814,0.4325,12.8268268268268,0.264427064613903,0.15234375,back
4.593,13.0953045019961,0.266,5416,0.3055,5.42142142142142,0.403826497804892,0.1640625,11.176,24.4422994008338,0.3805,14188,0.4395,14.2022022022022,0.196049259214048,0.2109375,back
1.072,3.13623978675101,0.239,1528,0.296,1.52952952952953,0.190013299236485,0.23046875,8.453,16.6836147162418,0.403,10975,0.448,10.985985985986,0.187787806372228,0.19921875,back
2.166,10.5582195468744,0.2295,2636,0.2885,2.63863863863864,0.350000050292539,0.20703125,10.43,20.7919696036715,0.399,13282,0.447,13.2952952952953,0.145721416519922,0.27734375,back
2.34,8.38295890482591,0.226,2855,0.279,2.85785785785786,0.297467308812309,0.16015625,10.453,20.6086147035651,0.382,12820,0.433,12.8328328328328,0.262679637370758,0.23046875,back
1.377,4.46486281984117,0.2395,1707,0.2895,1.70870870870871,0.389610420260291,0.171875,9.807,18.9329078590691,0.3805,11976,0.432,11.987987987988,0.24219970406482,0.23828125,back
1.431,5.87664870483169,0.233,1860,0.283,1.86186186186186,0.301721898077983,0.1640625,8.195,16.3899054298675,0.3495,10504,0.409,10.5145145145145,0.195196522594975,0.17578125,back
2.99,8.73258266493939,0.2435,3623,0.2855,3.62662662662663,0.324332990302688,0.15625,14.91,30.4210124749325,0.363,18958,0.422,18.976976976977,0.2023178549144,0.17578125,back
2.387,9.58055321993464,0.239,2978,0.284,2.98098098098098,0.331484493555189,0.171875,13.532,27.1462704620727,0.329,16698,0.38,16.7147147147147,0.223020968478845,0.19921875,back
2.657,7.17990250630188,0.229,3288,0.27,3.29129129129129,0.290896380093239,0.16796875,15.694,32.211333409221,0.363,20190,0.4135,20.2102102102102,0.196134080645805,0.16796875,back
3.08,8.1454281655417,0.3025,3896,0.3495,3.8998998998999,0.290425609602273,0.1875,14.066,29.9894981618566,0.3545,16787,0.409,16.8038038038038,0.329404574563906,0.1875,back
1.726,4.36692111217961,0.224,2194,0.269,2.1961961961962,0.253325918083359,0.21484375,11.428,23.7632068542947,0.375,15185,0.4355,15.2002002002002,0.130685069716604,0.2421875,back
1.713,4.81383423063155,0.223,2150,0.2655,2.15215215215215,0.331463312078458,0.16796875,9.769,20.2615645990136,0.361,12276,0.4045,12.2882882882883,0.234663796930706,0.20703125,back
1.885,4.74773630270258,0.26,2416,0.313,2.41841841841842,0.30707233460099,0.19921875,11.006,22.2239060473176,0.4015,14095,0.441,14.1091091091091,0.218877056275081,0.1640625,back
1.549,3.50157107596005,0.27,2056,0.323,2.05805805805806,0.166859070079201,0.2421875,14.75,29.1168679634332,0.378,18851,0.425,18.8698698698699,0.191201907505387,0.203125,back
1.755,4.79781200131894,0.2615,2259,0.3045,2.26126126126126,0.238768727702165,0.17578125,15.356,29.9266770624471,0.38,18981,0.429,19,0.189847708892339,0.2265625,back
1.621,3.79381074910175,0.26,2120,0.306,2.12212212212212,0.281033343844408,0.15625,17.995,35.0895283524872,0.391,23200,0.441,23.2232232232232,0.174205941404681,0.23828125,back
1.905,4.48185229564742,0.269,2458,0.316,2.46046046046046,0.282918979430011,0.17578125,19.997,37.2312100259983,0.3795,25575,0.4305,25.6006006006006,0.186268553500838,0.23046875,back
1.101,2.26517107521706,0.2505,1521,0.298,1.52252252252252,0.22471448581298,0.15625,16.447,31.0325474300773,0.372,21930,0.4185,21.951951951952,0.174174880266245,0.19140625,back
1.777,4.45162891535222,0.232,2340,0.2715,2.34234234234234,0.287320961129483,0.1875,17.247,34.624832129557,0.3745,21515,0.424,21.5365365365365,0.200725854829806,0.20703125,back
1.618,3.27902424510707,0.2705,2181,0.3155,2.18318318318318,0.187137248271157,0.1875,22.623,41.0737020488779,0.3975,28350,0.437,28.3783783783784,0.232605683292576,0.171875,back
1.705,3.47951145996101,0.277,2242,0.3255,2.24424424424424,0.2519153666878,0.15625,17.09,32.988513152308,0.3585,20741,0.4025,20.7617617617618,0.186899602188137,0.26171875,back
1.714,3.79473319220205,0.2615,2131,0.311,2.13313313313313,0.300015711377818,0.17578125,17.733,33.6319639628732,0.355,21493,0.4205,21.5145145145145,0.253630685213122,0.1875,back
2.512,6.0435089145297,0.24,3154,0.276,3.15715715715716,0.286003723579017,0.171875,14.142,28.5110504892401,0.3545,17719,0.4145,17.7367367367367,0.229679324252174,0.22265625,back
1.27,2.69295376863399,0.251,1686,0.302,1.68768768768769,0.254136789851076,0.203125,17.322,32.1531024941606,0.397,22514,0.4455,22.5365365365365,0.196993865566367,0.17578125,back
1.609,4.85314331129836,0.256,2116,0.313,2.11811811811812,0.282504920902187,0.17578125,13.339,25.4048223768638,0.355,16894,0.4105,16.9109109109109,0.195659821890479,0.2109375,back
1.398,2.94278779391243,0.26,1922,0.305,1.92392392392392,0.204151156430566,0.18359375,16.783,31.2858274622871,0.3585,20883,0.413,20.9039039039039,0.254775259005289,0.1875,back
1.109,2.01668044072431,0.281,1582,0.327,1.58358358358358,0.120234097413587,0.234375,12.325,24.3367006802483,0.3865,15537,0.438,15.5525525525526,0.228690453567793,0.18359375,back
1.24,2.6134268690744,0.277,1766,0.325,1.76776776776777,0.117829273533273,0.25,20.131,34.9060023491663,0.383,24498,0.4345,24.5225225225225,0.221145426148568,0.17578125,back
1.248,3.01396748489429,0.273,1614,0.324,1.61561561561562,0.349497281440847,0.18359375,15.221,25.4061213096372,0.3785,19039,0.4265,19.0580580580581,0.203274226607078,0.28125,back
2.525,6.17681147518685,0.272,3308,0.3145,3.31131131131131,0.296197978822931,0.16796875,12.93,24.2489175016123,0.3855,16404,0.4315,16.4204204204204,0.224937857090902,0.21484375,back
1.659,4.29872073994113,0.28,2212,0.34,2.21421421421421,0.268032041650939,0.203125,11.668,20.8008172916354,0.397,15008,0.439,15.023023023023,0.217233423136562,0.19140625,back
2.521,5.84183190446285,0.283,3308,0.325,3.31131131131131,0.23978061802024,0.2109375,13.111,24.1130462613084,0.386,17404,0.446,17.4214214214214,0.166241276738122,0.1953125,back
1.639,3.95512325977333,0.256,2130,0.307,2.13213213213213,0.290151513406299,0.1640625,12.33,24.0286495667151,0.384,15815,0.4285,15.8308308308308,0.225183909820678,0.203125,back
1.406,4.0054962239403,0.2305,1771,0.276,1.77277277277277,0.302434236091924,0.16015625,10.296,19.7833768603846,0.3925,13215,0.442,13.2282282282282,0.223340393131226,0.18359375,back
1.255,2.91393205136976,0.232,1594,0.281,1.5955955955956,0.277939221577076,0.1953125,12.335,23.9734644972311,0.382,16156,0.4245,16.1721721721722,0.158479971824543,0.265625,back
1.582,5.10137236437412,0.226,2054,0.273,2.05605605605606,0.204349341256006,0.234375,11.67,21.3083082388068,0.375,14246,0.424,14.2602602602603,0.253650373784261,0.203125,back
1.488,4.2785511566417,0.247,1996,0.298,1.997997997998,0.222055619016789,0.20703125,12.93,23.0364927886169,0.3625,15789,0.412,15.8048048048048,0.255820619377526,0.19921875,back
2.02,5.44903661209943,0.248,2558,0.296,2.56056056056056,0.300989788651531,0.16796875,10.781,20.9255107464549,0.3705,13495,0.4245,13.5085085085085,0.263328445787488,0.2265625,back
1.682,3.82544115103082,0.28,2216,0.333,2.21821821821822,0.219625316070564,0.14453125,13.654,26.2561611817112,0.3985,16923,0.4475,16.9399399399399,0.235907294973664,0.22265625,back
3.737,9.3476735073493,0.313,4530,0.372,4.53453453453454,0.298183766093469,0.171875,13.221,25.908319127261,0.3755,16413,0.4255,16.4294294294294,0.227200440987903,0.2265625,back
1.388,3.0841530441922,0.282,1804,0.333,1.80580580580581,0.240740538062643,0.1875,18.321,32.4823182670203,0.381,23080,0.428,23.1031031031031,0.217874984358511,0.22265625,back
1.208,2.93666477487642,0.241,1666,0.286,1.66766766766767,0.176712700833629,0.19921875,12.286,24.3352419342812,0.35,15464,0.398,15.4794794794795,0.254218718572882,0.17578125,back
2.048,5.65932858208463,0.291,2708,0.336,2.71071071071071,0.217303591518314,0.203125,16.014,28.1426722256434,0.369,20066,0.418,20.0860860860861,0.191226470072862,0.23046875,back
1.455,4.29057105756332,0.252,1884,0.304,1.88588588588589,0.284425123185442,0.20703125,10.528,19.1058106344641,0.3635,13497,0.4115,13.5105105105105,0.20091940025964,0.19921875,back
2.173,4.80385262055363,0.273,2624,0.317,2.62662662662663,0.350911910229213,0.16796875,17.003,31.1346270252271,0.383,21996,0.43,22.018018018018,0.179368350580729,0.2578125,back
1.207,3.24484206087138,0.225,1652,0.278,1.65365365365365,0.18395497676336,0.2578125,12.951,24.1599461919931,0.327,16096,0.376,16.1121121121121,0.279243060762145,0.15234375,back
1.496,3.32565782966318,0.248,1964,0.3,1.96596596596597,0.278571428571429,0.17578125,12.813,25.9142238934528,0.423,16549,0.4595,16.5655655655656,0.225566706464852,0.2109375,back
1.614,4.73856518368166,0.25,2042,0.3055,2.04404404404404,0.23981699719366,0.21875,13.312,27.442631069196,0.3875,15742,0.4335,15.7577577577578,0.300574597451839,0.18359375,back
1.51,3.47908033825033,0.2615,2033,0.3105,2.03503503503503,0.23894870252706,0.17578125,13.931,25.1615778519551,0.4005,17609,0.451,17.6266266266266,0.195385511109525,0.18359375,back
1.052,2.21810730128188,0.2475,1525,0.2975,1.52652652652653,0.153892692019666,0.2734375,12.632,23.7018986581244,0.4065,15865,0.453,15.8808808808809,0.223212045712666,0.2578125,back
2.841,7.18463638606715,0.31,3522,0.3645,3.52552552552553,0.305294225284694,0.15234375,16.623,28.8006076324789,0.4135,21526,0.47,21.5475475475475,0.18341101382667,0.27734375,back
2.697,7.71952071051047,0.279,3540,0.327,3.54354354354354,0.265994459379647,0.2109375,19.07,37.9293817508274,0.404,23433,0.455,23.4564564564565,0.253513430552406,0.16015625,back
1.72,3.50199942889773,0.277,2282,0.3225,2.28428428428428,0.262874571729127,0.1640625,17.885,32.9311554610524,0.425,22408,0.466,22.4304304304304,0.241816904725652,0.2265625,back
2.213,5.58184557292658,0.279,2802,0.3305,2.8048048048048,0.285688054824625,0.19140625,14.201,26.7102040426501,0.4155,17668,0.458,17.6856856856857,0.23522484672233,0.2109375,back
1.686,3.70243163339987,0.269,2216,0.3115,2.21821821821822,0.281147803867548,0.15234375,22.332,44.6979417870667,0.4305,28425,0.468,28.4534534534535,0.226705174605814,0.1796875,back
2.81,7.45774764925711,0.3045,3463,0.365,3.46646646646647,0.359395373028023,0.171875,19.625,36.4868058344383,0.4355,25132,0.469,25.1571571571572,0.17215031789962,0.23828125,back
3.166,8.92905370126084,0.2785,3983,0.314,3.98698698698699,0.205924022964394,0.19921875,16.948,34.6114431944119,0.4145,21508,0.463,21.5295295295295,0.178724003447791,0.24609375,back
2.899,8.18602467623938,0.291,3488,0.3465,3.49149149149149,0.351688519064625,0.1640625,21.729,42.5172082808832,0.418,28732,0.466,28.7607607607608,0.115922326236171,0.23828125,back
3.146,8.3783053179029,0.2765,3839,0.3305,3.84284284284284,0.324048696894366,0.1875,21.479,46.2541565699776,0.442,28074,0.481,28.1021021021021,0.12774162311283,0.25,back
2.895,5.94869733639223,0.307,3712,0.358,3.71571571571572,0.24090507976297,0.17578125,22.867,47.5644930594241,0.4075,28999,0.4605,29.028028028028,0.181647517688907,0.1875,back
7.547,22.2026800184122,0.2445,9771,0.31,9.78078078078078,0.121540956626548,0.2734375,2.433,4.49277197284705,0.3455,3301,0.4165,3.3043043043043,0.178496031735405,0.2109375,front
15.52,39.4216945348624,0.3015,20279,0.364,20.2992992992993,0.134727843815561,0.2734375,2.967,4.90540518204154,0.386,4018,0.438,4.02202202202202,0.115903863886602,0.26171875,front
12.496,30.0625348232646,0.2665,16659,0.3215,16.6756756756757,0.127128568871585,0.203125,3.223,5.01388073252645,0.3945,4253,0.443,4.25725725725726,0.160666779220717,0.16796875,front
10.967,26.654849464966,0.271,14162,0.331,14.1761761761762,0.130783741310278,0.234375,3.561,5.46671747943864,0.4145,4739,0.462,4.74374374374374,0.172039354151995,0.18359375,front
13.083,31.5508636965773,0.283,17178,0.334,17.1951951951952,0.0403389447348547,0.2421875,3.949,6.06011551045028,0.387,4984,0.431,4.98898898898899,0.243243952675287,0.1875,front
10.1,24.9084323071525,0.2665,12449,0.3295,12.4614614614615,0.147583094431956,0.24609375,3.808,5.72590604184176,0.3905,4895,0.438,4.8998998998999,0.204111233030998,0.18359375,front
8.582,19.7318524219091,0.3045,11958,0.3585,11.96996996997,0.0490192603038412,0.28125,3.705,5.84799110806438,0.3805,4887,0.4355,4.89189189189189,0.163162199570693,0.17578125,front
17.648,40.587781412637,0.2905,23379,0.3385,23.4024024024024,0.128856719297324,0.20703125,4.217,6.25611700657844,0.4075,5412,0.4515,5.41741741741742,0.173615027019727,0.203125,front
12.341,30.7134335429955,0.2565,16195,0.313,16.2112112112112,0.0578444197818263,0.2734375,4.011,6.22840268447698,0.39,5231,0.4395,5.23623623623624,0.1896080157379,0.2265625,front
17.134,38.8277478100391,0.287,23288,0.3295,23.3113113113113,0.127766254786814,0.24609375,3.942,6.30333245196539,0.4145,5297,0.4605,5.3023023023023,0.159065740461089,0.17578125,front
8.903,19.8607905180031,0.291,11830,0.332,11.8418418418418,0.0862464019556288,0.27734375,5.521,8.5244941198877,0.4175,7186,0.4535,7.19319319319319,0.203300755757075,0.24609375,front
19.395,41.3248956441514,0.283,25946,0.3365,25.971971971972,0.138545434684014,0.27734375,5.199,7.18366201877566,0.426,6717,0.461,6.72372372372372,0.21167826025946,0.1640625,front
11.053,27.5069991093176,0.272,14697,0.3215,14.7117117117117,0.129604185765956,0.2578125,3.935,5.99107669788995,0.399,4982,0.4385,4.98698698698699,0.229210892627503,0.19921875,front
9.455,22.7256463054409,0.295,12770,0.335,12.7827827827828,0.147364747347624,0.21484375,4.415,6.80859750609478,0.3925,5496,0.4405,5.5015015015015,0.295895148258001,0.1796875,front
16.832,35.9053756420957,0.302,21676,0.359,21.6976976976977,0.190187507130188,0.1953125,4.12,6.81513022619524,0.3995,5395,0.449,5.4004004004004,0.198254796052129,0.19140625,front
8.943,21.8037382116003,0.2845,12045,0.3445,12.0570570570571,0.120452336583246,0.1875,3.39,5.68700272551368,0.409,4596,0.459,4.6006006006006,0.151633492149498,0.1796875,front
13.158,30.40348664216,0.2975,17495,0.3495,17.5125125125125,0.132337557249708,0.1953125,3.767,5.77468613865723,0.3865,4876,0.428,4.88088088088088,0.237982344295366,0.15625,front
10.6,23.0208601055651,0.3035,13941,0.375,13.954954954955,0.167321322170212,0.1796875,4.521,6.94240592302121,0.3995,5803,0.4445,5.80880880880881,0.215453540971758,0.1640625,front
11.585,28.2728668514532,0.2865,15324,0.358,15.3393393393393,0.152826656236457,0.19921875,2.884,4.76298225904737,0.382,3856,0.4435,3.85985985985986,0.174195026990621,0.28125,front
13.384,28.8525562125785,0.2995,17093,0.3615,17.1101101101101,0.212329218634093,0.19140625,3.856,6.83505669325427,0.3925,5143,0.4525,5.14814814814815,0.151631171458224,0.2421875,front
19.483,43.9666805660832,0.2925,25207,0.3485,25.2322322322322,0.163120376786271,0.24609375,3.523,5.40175897277914,0.418,4631,0.46,4.63563563563564,0.181216645298248,0.26171875,front
11.449,26.3434432069918,0.3205,15528,0.3745,15.5435435435435,0.155888268883254,0.19140625,4.018,6.06531120388723,0.421,5280,0.475,5.28528528528529,0.164809086003377,0.1796875,front
16.168,34.8042238815923,0.299,20758,0.343,20.7787787787788,0.148549739330554,0.2109375,3.798,5.9174318754,0.394,5004,0.4425,5.00900900900901,0.198937262113501,0.2265625,front
10.615,24.7340049324811,0.3035,13937,0.3525,13.950950950951,0.117787654763135,0.2578125,3.948,5.9710970516313,0.421,5191,0.473,5.1961961961962,0.166786160034256,0.2265625,front
24.462,53.4606023160982,0.349,33816,0.391,33.8498498498498,0.0765325087501071,0.23046875,3.095,4.85252511585463,0.403,4075,0.454,4.07907907907908,0.140997980880354,0.1953125,front
7.303,16.9278764173183,0.2895,9893,0.3565,9.9029029029029,0.110827447075591,0.26953125,4.396,6.49538297562199,0.416,5558,0.4445,5.56356356356356,0.208599080754961,0.265625,front
15.627,34.4281135120703,0.288,20894,0.3325,20.9149149149149,0.136388467760957,0.18359375,5.283,8.00431133827264,0.397,6668,0.4445,6.67467467467468,0.235723911614704,0.19921875,front
15.851,34.5011738930721,0.309,21068,0.361,21.0890890890891,0.176060214386678,0.19140625,3.8,6.06695969988264,0.3785,4921,0.4275,4.92592592592593,0.209797055179913,0.17578125,front
11.104,24.5368294610367,0.278,14894,0.3275,14.9089089089089,0.0734503120200307,0.28515625,3.132,5.19595996905288,0.3665,4049,0.429,4.05305305305305,0.205787769190138,0.2265625,front
18.842,38.4171315951621,0.323,24320,0.368,24.3443443443443,0.140132221426675,0.203125,3.902,5.92756273690967,0.416,5124,0.456,5.12912912912913,0.228079525004239,0.1875,front
7.973,21.5858518479119,0.2515,10865,0.311,10.8758758758759,0.123172506213387,0.20703125,1.81,3.35946424300066,0.319,2460,0.3825,2.46246246246246,0.156666897885448,0.2109375,front
10.871,27.8296424698558,0.2605,13875,0.3185,13.8888888888889,0.0800361143454521,0.265625,2.467,4.45252737217864,0.35,3350,0.4085,3.35335335335335,0.170439309499975,0.21484375,front
10.3,23.3430503576546,0.2695,13081,0.33,13.0940940940941,0.166984607956899,0.203125,2.665,4.91741802168577,0.343,3456,0.4045,3.45945945945946,0.265249302370636,0.171875,front
12.552,29.9764240695918,0.3015,16717,0.3505,16.7337337337337,0.120668415088961,0.25,3.858,5.89338612344381,0.398,5076,0.4465,5.08108108108108,0.221818025133574,0.1796875,front
6.412,16.5582607782339,0.2475,8589,0.299,8.5975975975976,0.132712981388507,0.21875,4.348,6.70358113249926,0.3925,5669,0.4435,5.67467467467468,0.197315749080604,0.23046875,front
15.191,38.545388829275,0.278,19804,0.329,19.8238238238238,0.131124723236886,0.234375,3.028,5.06853035898967,0.379,4198,0.431,4.2022022022022,0.130867906578109,0.21875,front
10.062,23.4274625173107,0.31,13162,0.3615,13.1751751751752,0.135142324002541,0.18359375,2.826,4.53387251695501,0.3965,3807,0.4515,3.81081081081081,0.167158427697103,0.19140625,front
14.783,33.9190359532815,0.2815,19433,0.3315,19.4524524524525,0.174819816204372,0.203125,4.633,7.25224103294975,0.4045,5736,0.441,5.74174174174174,0.267760138328702,0.1640625,front
20.531,50.8075683338615,0.314,26850,0.366,26.8768768768769,0.159754454305138,0.2578125,4.204,6.64048191022308,0.4055,5505,0.446,5.51051051051051,0.189169504026271,0.20703125,front
15.964,37.2497248311984,0.287,20314,0.3485,20.3343343343343,0.188307400417513,0.19921875,4.406,6.75277720645365,0.3995,5730,0.4495,5.73573573573574,0.199985669516753,0.19921875,front
12.159,26.6768251484317,0.288,15558,0.3405,15.5735735735736,0.125231735573744,0.234375,4.444,7.24292758489273,0.3965,5823,0.4435,5.82882882882883,0.208082272321249,0.171875,front
19.642,41.4460854605112,0.3085,26187,0.3575,26.2132132132132,0.158464988001643,0.28125,2.805,4.71158147547084,0.3715,3741,0.4275,3.74474474474474,0.200952916820281,0.16015625,front
10.651,26.700318350162,0.331,13430,0.3885,13.4434434434434,0.171986785233809,0.203125,5.24,8.03753693615152,0.396,6800,0.4385,6.80680680680681,0.20722224437993,0.22265625,front
12.54,29.0281242935192,0.27,17268,0.33,17.2852852852853,0.0798984093651439,0.26953125,3.051,5.08163359560683,0.394,3952,0.443,3.95595595595596,0.17740673481269,0.19921875,front
20.965,50.3122947200781,0.3025,27932,0.3525,27.95995995996,0.111029942783008,0.2109375,3.495,5.91058372751795,0.4055,4723,0.4545,4.72772772772773,0.175357965823779,0.21875,front
24.568,61.6731059701066,0.296,31928,0.35,31.95995995996,0.152364447340474,0.25,4.804,7.70012986903468,0.384,5960,0.428,5.96596596596597,0.241684758033539,0.16796875,front
12.815,35.1793547410978,0.2545,17961,0.3115,17.978978978979,0.0590174253919928,0.1953125,3.524,6.25443842403137,0.3585,4577,0.4195,4.58158158158158,0.182803165240392,0.25,front
28.676,63.7363946266182,0.2815,36697,0.3465,36.7337337337337,0.127757617814815,0.19921875,4.071,6.15199154745843,0.405,5236,0.436,5.24124124124124,0.213605928325207,0.16796875,front
12.362,30.4635191663734,0.309,15922,0.3635,15.9379379379379,0.128488430481123,0.234375,4.47,6.82510073185737,0.4175,5811,0.4545,5.81681681681682,0.204263166112587,0.18359375,front
14.802,36.180989483429,0.2895,20019,0.3385,20.039039039039,0.0755973190609687,0.21484375,3.924,7.19346926037778,0.3565,5017,0.41,5.02202202202202,0.212846040579366,0.21484375,front
27.238,64.9089824292447,0.2875,36411,0.341,36.4474474474474,0.121514878147547,0.22265625,4.359,7.05712406012534,0.404,5562,0.4495,5.56756756756757,0.215529043083631,0.1953125,front
11.922,31.5145680598672,0.281,16212,0.3345,16.2282282282282,0.0973254904187464,0.2578125,2.578,4.26825491272487,0.3925,3463,0.4495,3.46646646646647,0.185536858617719,0.19140625,front
9.233,24.3600697864353,0.266,12426,0.322,12.4384384384384,0.114340467114454,0.2265625,4.926,7.3488774653004,0.4075,6275,0.44,6.28128128128128,0.189016753886215,0.2265625,front
22.017,53.3017541925217,0.267,29030,0.32,29.0590590590591,0.102632621717775,0.26953125,3.56,5.96841687552068,0.3825,4550,0.4315,4.55455455455456,0.216659538604038,0.16796875,front
18.903,42.6178249093029,0.306,25786,0.3635,25.8118118118118,0.0955637540781285,0.26953125,4.863,7.94550187212866,0.407,6146,0.4575,6.15215215215215,0.237331594845703,0.171875,front
18.328,50.4905733776118,0.285,25978,0.337,26.004004004004,0.124769290552387,0.24609375,3.791,5.96648975529163,0.3855,4891,0.4225,4.8958958958959,0.195480591216558,0.265625,front
14.37,37.8220041774626,0.2595,19454,0.3115,19.4734734734735,0.072152939526214,0.2734375,4.305,6.88236877826232,0.3855,5602,0.4325,5.60760760760761,0.208411105447955,0.19140625,front
24.469,60.5867394732544,0.314,31655,0.376,31.6866866866867,0.113238741412796,0.265625,4.657,6.77325623315699,0.424,6131,0.467,6.13713713713714,0.223083666598174,0.19140625,front
12.278,34.3686194078261,0.2765,16430,0.337,16.4464464464464,0.155935031748521,0.29296875,3.385,5.33075979575145,0.401,4548,0.445,4.55255255255255,0.191716197730482,0.203125,front
12.911,42.1921201173869,0.248,17664,0.3115,17.6816816816817,0.0969114078236304,0.25390625,2.754,4.86127555277419,0.364,3678,0.4195,3.68168168168168,0.202859312551179,0.2578125,front
17.365,37.1875920166929,0.328,23334,0.3895,23.3573573573574,0.118554662327843,0.2421875,4.14,6.01265332444837,0.425,5532,0.449,5.53753753753754,0.155763358051514,0.19921875,front
10.646,28.0345144420231,0.287,14474,0.3685,14.4884884884885,0.15530077027763,0.19140625,2.829,4.65929179167822,0.3735,3697,0.425,3.7007007007007,0.208249608870851,0.19140625,front
13.51,36.0781374242075,0.2695,18156,0.33,18.1741741741742,0.0609202283652348,0.28515625,3.053,5.27892034416129,0.349,3972,0.394,3.97597597597598,0.22578671895925,0.17578125,front
13.886,35.115096468613,0.32,17654,0.376,17.6716716716717,0.108093709981727,0.22265625,2.944,4.61909081963107,0.3585,3619,0.414,3.62262262262262,0.246109861267342,0.1796875,front
11.058,28.21535043199,0.307,13908,0.3675,13.9219219219219,0.131056176310919,0.25390625,3.24,4.84107426094663,0.405,4262,0.453,4.26626626626627,0.206426502506549,0.2109375,front
11.251,26.8764022889969,0.288,15056,0.344,15.0710710710711,0.139275438883474,0.2421875,2.507,4.15270995856922,0.329,3232,0.374,3.23523523523524,0.236640815492083,0.21875,front
7.734,21.5549066339894,0.292,9902,0.358,9.91191191191191,0.179208349064617,0.234375,3.311,5.16962281022513,0.3935,4255,0.44,4.25925925925926,0.232343426685226,0.171875,front
11.215,26.9451850986405,0.309,16006,0.365,16.022022022022,0.0814709559477667,0.28125,3.498,5.05766744656072,0.3865,4454,0.4295,4.45845845845846,0.264343271637196,0.1796875,front
10.241,23.7542206775975,0.2845,13797,0.3385,13.8108108108108,0.116991513229978,0.2421875,3.24,4.8024993492972,0.389,4094,0.44,4.0980980980981,0.278739962344959,0.15234375,front
15.622,34.459512474787,0.3095,20646,0.366,20.6666666666667,0.142602814517488,0.2265625,3.012,4.51752144433206,0.372,3896,0.407,3.8998998998999,0.219423142800302,0.19921875,front
8.888,22.2857353479754,0.281,10958,0.3435,10.968968968969,0.213948839194515,0.20703125,3.378,5.18439967595092,0.398,4380,0.444,4.38438438438438,0.224389108052953,0.19921875,front
9.4,22.8617147213414,0.296,12308,0.3585,12.3203203203203,0.096717005676243,0.23828125,2.284,3.52420203734122,0.3955,3117,0.4435,3.12012012012012,0.18920866927846,0.21875,front
9.545,26.3303057331281,0.2855,12669,0.354,12.6816816816817,0.111444104213209,0.2109375,4.3,7.34207055264385,0.4005,5657,0.439,5.66266266266266,0.208919032393022,0.203125,front
13.237,37.0005270232736,0.284,17066,0.3435,17.0830830830831,0.11763035788035,0.23828125,4.243,7.1208847764867,0.3855,5332,0.427,5.33733733733734,0.249609895121325,0.19140625,front
10.976,27.5879683920364,0.3155,15107,0.3745,15.1221221221221,0.138063322857537,0.203125,5.142,7.70869638784665,0.414,6521,0.458,6.52752752752753,0.233398863808869,0.1953125,front
15.303,38.0125110983213,0.2845,19545,0.3445,19.5645645645646,0.205960661857744,0.16796875,3.627,5.72529475223765,0.3845,4737,0.4335,4.74174174174174,0.174926003293466,0.2578125,front
10.262,25.7021010814291,0.29,13366,0.355,13.3793793793794,0.133031988144861,0.1875,4.553,6.87844459162099,0.3945,5771,0.438,5.77677677677678,0.234168814076912,0.18359375,front
18.912,43.2496242758246,0.296,24956,0.347,24.980980980981,0.175627253276438,0.203125,4.447,7.53478599563385,0.3885,5596,0.4395,5.6016016016016,0.252795824852655,0.16015625,front
12.009,26.3503889914362,0.344,15682,0.395,15.6976976976977,0.155161680876867,0.26953125,3.359,5.01408017486757,0.417,4476,0.457,4.48048048048048,0.169518297128209,0.20703125,front
8.959,21.8919848346375,0.3045,12243,0.3505,12.2552552552553,0.105719724960583,0.2265625,4.418,6.33198231204099,0.3875,5448,0.4395,5.45345345345345,0.261064320410731,0.16796875,front
22.684,52.7846000269018,0.307,29238,0.383,29.2672672672673,0.114437902669416,0.20703125,3.105,4.62720217842272,0.397,3978,0.4495,3.98198198198198,0.207592861851486,0.1640625,front
19.269,48.12871284379,0.321,26362,0.38,26.3883883883884,0.0293617883276589,0.26171875,4.079,6.34342178953914,0.397,5144,0.445,5.14914914914915,0.25950963667245,0.17578125,front
17.367,41.0477892218326,0.31,22994,0.3565,23.017017017017,0.133853066265876,0.234375,3.713,5.48352076680667,0.389,4686,0.44,4.69069069069069,0.225138874203423,0.17578125,front
7.255,18.6851010165854,0.308,9994,0.369,10.004004004004,0.135098291738543,0.22265625,4.704,6.79411510058521,0.398,5947,0.442,5.95295295295295,0.239162098254185,0.18359375,front
17.965,45.9981412667947,0.3125,24289,0.3685,24.3133133133133,0.0629959081601795,0.26171875,5.264,7.90986725552332,0.418,6660,0.446,6.66666666666667,0.204560979977317,0.1796875,front
13.837,35.4557329637959,0.2735,18035,0.3275,18.0530530530531,0.207400245670945,0.25,4.248,6.26721628795433,0.4,5407,0.433,5.41241241241241,0.21441714306017,0.16015625,front
16.597,41.9238476287661,0.2955,22632,0.3475,22.6546546546547,0.0642503406250491,0.26171875,3.206,5.31733015713713,0.364,4172,0.4135,4.17617617617618,0.191061436650948,0.18359375,front
17,46.5483834305768,0.309,22802,0.369,22.8248248248248,0.0707457451435495,0.21484375,2.762,4.72567455502387,0.38,3604,0.425,3.60760760760761,0.2113647794175,0.1640625,front
17.87,42.1578936855247,0.289,24820,0.347,24.8448448448448,0.0799907610898114,0.27734375,3.155,5.39416351253834,0.364,4052,0.421,4.05605605605606,0.182663285463925,0.16015625,front
11.071,24.7005060676902,0.296,14310,0.3515,14.3243243243243,0.131930110411692,0.21484375,3.347,6.31133900214527,0.3465,4365,0.4085,4.36936936936937,0.239897668284994,0.1640625,front
19.263,44.8264765512526,0.3145,25032,0.3655,25.0570570570571,0.13438326713255,0.265625,4.163,6.29833311281644,0.375,5122,0.415,5.12712712712713,0.28349734619136,0.18359375,front
9.024,23.0219460515396,0.301,12354,0.366,12.3663663663664,0.082656931102518,0.26171875,4.532,7.85824407867305,0.367,5765,0.415,5.77077077077077,0.203931354364257,0.26171875,front
16.198,40.976993545159,0.293,21874,0.3435,21.8958958958959,0.154013581288003,0.22265625,3.064,5.02015936002036,0.363,4016,0.419,4.02002002002002,0.159032859464615,0.23046875,front
22.444,47.3467211113927,0.3155,30198,0.3765,30.2282282282282,0.073128958466224,0.2578125,4.352,6.97839523099688,0.4025,5564,0.4465,5.56956956956957,0.220145689192195,0.171875,front
14.831,31.6296221918631,0.3105,19276,0.3675,19.2952952952953,0.148539486402883,0.21875,3.906,5.89185878988966,0.391,5051,0.432,5.05605605605606,0.224198138516424,0.19921875,front
16.056,35.4660682906916,0.288,21236,0.3365,21.2572572572573,0.124694371519751,0.23046875,3.864,6.18724494423811,0.396,5096,0.441,5.1011011011011,0.158290135808823,0.27734375,front
16.679,40.667025954697,0.294,21636,0.3565,21.6576576576577,0.154062021211601,0.1953125,3.862,5.57584074378026,0.384,4838,0.428,4.84284284284284,0.250167248847417,0.21484375,front
13.727,33.0776812972131,0.3315,18889,0.39,18.9079079079079,0.106394209764529,0.26953125,4.398,6.94233390150604,0.3975,5615,0.4365,5.62062062062062,0.217387487217218,0.19140625,front
22.637,50.3354050346275,0.319,30842,0.378,30.8728728728729,0.040533249053651,0.2734375,4.506,7.0427267446636,0.364,5376,0.408,5.38138138138138,0.316309600806743,0.16015625,front
19.633,45.4411597563266,0.293,26110,0.3465,26.1361361361361,0.0865662784381565,0.28515625,4.57,6.91071631598346,0.394,5664,0.44,5.66966966966967,0.206051663477312,0.20703125,front
17.166,41.0505785586513,0.3025,23897,0.3635,23.9209209209209,0.0614231523249345,0.25390625,4.987,7.53969495404158,0.396,6272,0.447,6.27827827827828,0.24829106105721,0.1796875,front
19.009,42.1904136030924,0.2525,24887,0.293,24.9119119119119,0.114053830729468,0.2265625,3.458,5.38794951720968,0.42,4689,0.472,4.69369369369369,0.0970505595793876,0.265625,front
21.422,49.9556803576931,0.2905,28281,0.34,28.3093093093093,0.165221520948956,0.18359375,3.257,5.70867760519019,0.4065,4343,0.459,4.34734734734735,0.128818055867503,0.26953125,front
19.454,42.4763699013934,0.311,25962,0.3625,25.987987987988,0.151833886005338,0.234375,4.117,6.4268966072281,0.426,5683,0.476,5.68868868868869,0.125845825830984,0.26953125,front
17.209,38.1267229118895,0.277,22214,0.321,22.2362362362362,0.185506693460901,0.18359375,3.475,5.55634772130039,0.399,4702,0.45,4.70670670670671,0.175245681493569,0.1953125,front
27.909,61.4307496291556,0.28,36550,0.313,36.5865865865866,0.124216532931237,0.203125,4.345,6.79683749989655,0.406,5824,0.464,5.82982982982983,0.154983127598536,0.19921875,front
16.611,34.7372278686714,0.289,21628,0.336,21.6496496496497,0.206614857972397,0.19921875,4.247,6.42580734227225,0.41,5460,0.467,5.46546546546547,0.158817396714152,0.203125,front
17.501,36.1932175966713,0.2535,22847,0.296,22.8698698698699,0.0931860000527207,0.25,3.022,4.63529934308454,0.4005,3979,0.451,3.98298298298298,0.143609678010665,0.23046875,front
22.18,47.4748143756245,0.25,29382,0.291,29.4114114114114,0.103584296198966,0.21484375,3.576,5.62032027557149,0.4,4802,0.4485,4.80680680680681,0.167186221092127,0.23828125,front
21.008,51.7650461218765,0.28,30026,0.332,30.0560560560561,0.0413634388379058,0.27734375,3.834,6.14328902136307,0.4005,4933,0.4525,4.93793793793794,0.194910427224089,0.22265625,front
16.245,40.7595019596658,0.289,21578,0.321,21.5995995995996,0.0824661100098289,0.26171875,5.142,7.88111667214742,0.4155,6626,0.4555,6.63263263263263,0.250755927095182,0.1953125,front
18.491,34.7113382052608,0.308,24188,0.355,24.2122122122122,0.163548202182059,0.18359375,3.978,5.99399699699625,0.437,5523,0.4725,5.52852852852853,0.0563133281371785,0.26171875,front
26.206,52.2265066800375,0.313,34620,0.352,34.6546546546547,0.167342372683196,0.23046875,3.674,5.32503521115119,0.421,4831,0.468,4.83583583583584,0.12645318456369,0.2578125,front
17.792,38.153636786026,0.303,24994,0.353,25.019019019019,0.105914867161693,0.265625,3.76,5.58945435619614,0.4005,5009,0.449,5.01401401401401,0.178889986024603,0.17578125,front
15.893,33.7353375557441,0.28,20460,0.336,20.4804804804805,0.140367580560662,0.25390625,5.063,7.66765935602254,0.418,6741,0.4595,6.74774774774775,0.14103903883099,0.28515625,front
7.547,22.2026800184122,0.2445,9771,0.31,9.78078078078078,0.121540956626548,0.2734375,2.433,4.49277197284705,0.3455,3301,0.4165,3.3043043043043,0.178496031735405,0.2109375,front
15.52,39.4216945348624,0.3015,20279,0.364,20.2992992992993,0.134727843815561,0.2734375,2.967,4.90540518204154,0.386,4018,0.438,4.02202202202202,0.115903863886602,0.26171875,front
12.496,30.0625348232646,0.2665,16659,0.3215,16.6756756756757,0.127128568871585,0.203125,3.223,5.01388073252645,0.3945,4253,0.443,4.25725725725726,0.160666779220717,0.16796875,front
2.794,6.80249954061005,0.265,3557,0.3255,3.56056056056056,0.211646836168237,0.2578125,19.488,50.2020915898929,0.351,24719,0.3965,24.7437437437437,0.202716711444801,0.1796875,left
2.78,6.59848467452945,0.309,3528,0.358,3.53153153153153,0.249201069331593,0.1953125,21.317,46.2969869429966,0.358,26175,0.404,26.2012012012012,0.2376722722053,0.19921875,left
1.947,4.35786645045486,0.262,2637,0.319,2.63963963963964,0.179401788967462,0.2265625,21.312,48.3689363124723,0.392,27690,0.438,27.7177177177177,0.192413158242227,0.17578125,left
2.044,5.86293441887252,0.2895,2569,0.3475,2.57157157157157,0.233069159292631,0.1953125,10.526,30.2460906564799,0.365,13457,0.43,13.4704704704705,0.22523412727917,0.20703125,left
1.537,3.21138599361709,0.284,2130,0.343,2.13213213213213,0.155730747531352,0.18359375,25.659,58.9390278168889,0.3425,31048,0.392,31.0790790790791,0.243952048966914,0.2265625,left
2.162,4.33105068083947,0.328,2856,0.382,2.85885885885886,0.207677036397618,0.21875,25.351,49.995209770537,0.372,32072,0.422,32.1041041041041,0.189159392523028,0.19921875,left
5.06,9.94092551023294,0.387,6427,0.444,6.43343343343343,0.26374302823404,0.18359375,21.983,47.2989957610096,0.371,26896,0.436,26.9229229229229,0.244019031721813,0.17578125,left
4.509,7.42179223638064,0.398,5735,0.449,5.74074074074074,0.19801971020219,0.1875,20.363,45.8267280088815,0.35,24716,0.414,24.7407407407407,0.282587138447728,0.17578125,left
4.191,6.10286817816017,0.405,5385,0.449,5.39039039039039,0.173861142762107,0.2109375,24.555,49.9745034992845,0.372,30625,0.426,30.6556556556557,0.211317878641369,0.2578125,left
3.159,6.90702540895862,0.342,4125,0.406,4.12912912912913,0.168460235174946,0.203125,14.92,36.9838343063561,0.377,18522,0.431,18.5405405405405,0.174850198976751,0.22265625,left
6.566,16.3187009286891,0.383,8565,0.432,8.57357357357357,0.148390734902226,0.21484375,21.212,47.9831220326481,0.352,26837,0.397,26.8638638638639,0.221025082068465,0.17578125,left
3.479,5.38135670625912,0.382,4625,0.425,4.62962962962963,0.211066543457902,0.17578125,20.717,46.2728970348735,0.357,25767,0.419,25.7927927927928,0.243251782852684,0.19140625,left
3.933,6.55263305854982,0.3895,5054,0.442,5.05905905905906,0.189248298195671,0.2421875,23.654,56.9496795425576,0.365,29266,0.417,29.2952952952953,0.256443437391714,0.1875,left
2.477,6.0599504948473,0.2565,3042,0.3095,3.04504504504504,0.267487850385356,0.21484375,13.471,34.7650830575737,0.336,16366,0.396,16.3823823823824,0.279915505950347,0.18359375,left
1.999,4.3629118716747,0.274,2748,0.3235,2.75075075075075,0.182400705978625,0.16796875,17.439,39.065624275058,0.325,21288,0.3995,21.3093093093093,0.244831345785526,0.171875,left
4.002,8.20670457613773,0.3685,5085,0.4185,5.09009009009009,0.240610156518176,0.21484375,21.994,50.2901580828695,0.3585,27875,0.4205,27.9029029029029,0.209186341941676,0.1796875,left
4.725,10.1484481572307,0.2995,6187,0.3615,6.19319319319319,0.169844853815061,0.19140625,21.525,46.7001820124933,0.3645,28429,0.4205,28.4574574574575,0.161654571253006,0.2265625,left
2.541,4.9994999749975,0.32,3356,0.368,3.35935935935936,0.194917403939358,0.2265625,24.184,53.3222655182617,0.35,29858,0.4075,29.8878878878879,0.228865022779331,0.20703125,left
2.769,6.86476510887299,0.283,3500,0.337,3.5035035035035,0.254514573024262,0.2265625,25.221,51.7820721871962,0.3755,31283,0.433,31.3143143143143,0.23393171180381,0.19140625,left
2.438,4.83797478290245,0.3115,3231,0.3585,3.23423423423423,0.170988432342225,0.22265625,21.987,46.649362267881,0.36,28928,0.418,28.956956956957,0.164578059131295,0.2109375,left
1.714,3.61994475095961,0.2645,2255,0.317,2.25725725725726,0.189930811486742,0.22265625,19.135,45.2162470800043,0.3455,23248,0.403,23.2712712712713,0.248389757873058,0.1875,left
3.214,7.82342635933898,0.252,4034,0.3155,4.03803803803804,0.199326811000577,0.18359375,18.551,40.1849101031718,0.3455,23532,0.395,23.5555555555556,0.210964812500307,0.23828125,left
7.427,14.5741208997318,0.4035,9637,0.4535,9.64664664664665,0.199221897460234,0.24609375,22.588,49.7535928350908,0.3495,27858,0.4075,27.8858858858859,0.244310462459794,0.20703125,left
2.439,5.9141356088612,0.2825,3215,0.3325,3.21821821821822,0.207699218585216,0.18359375,22.324,50.3476911089277,0.347,28700,0.406,28.7287287287287,0.210673626995442,0.26171875,left
1.796,4.36325566521147,0.274,2390,0.324,2.39239239239239,0.232532347562935,0.16796875,22.811,52.4373626339083,0.345,28314,0.4035,28.3423423423423,0.195068590876697,0.234375,left
3.538,6.43645865363866,0.3705,4539,0.4335,4.54354354354354,0.227998407961434,0.171875,19.635,46.7931298376161,0.3515,24763,0.4135,24.7877877877878,0.226210694667538,0.19140625,left
4.052,7.02751734256131,0.394,5435,0.448,5.44044044044044,0.163769226842925,0.23046875,21.613,48.0984926998757,0.35,27458,0.395,27.4854854854855,0.224956497567753,0.1875,left
5.783,10.7015419449722,0.3725,7625,0.4335,7.63263263263263,0.167285140656886,0.20703125,22.264,45.0694131313023,0.366,27826,0.407,27.8538538538539,0.239342947016358,0.19140625,left
1.718,3.87117553205741,0.2105,2156,0.262,2.15815815815816,0.221006508717722,0.1640625,19.479,47.5924258679887,0.3185,24688,0.369,24.7127127127127,0.217626390220112,0.203125,left
2.056,4.50244378088167,0.2525,2721,0.304,2.72372372372372,0.189571761890494,0.21875,19.867,43.9235130653276,0.3205,24435,0.371,24.4594594594595,0.222339874362166,0.18359375,left
2.773,6.76025147461246,0.2535,3681,0.2895,3.68468468468468,0.184327320482842,0.18359375,23.496,49.7379332099757,0.371,29745,0.42,29.7747747747748,0.166550916474715,0.26171875,left
1.392,3.93751190474391,0.235,1900,0.2915,1.9019019019019,0.133379337666728,0.23828125,18.099,40.6251769226917,0.358,22328,0.4035,22.3503503503504,0.225784889520252,0.1484375,left
4.451,10.0797321392981,0.302,5778,0.361,5.78378378378378,0.195805088089692,0.1953125,21.723,47.4347446498872,0.3725,26708,0.4185,26.7347347347347,0.22320816637608,0.1953125,left
1.594,3.57966478877562,0.245,2166,0.294,2.16816816816817,0.18526509686224,0.23828125,24.678,54.9015482477498,0.343,30164,0.3925,30.1941941941942,0.238919964457692,0.19140625,left
1.834,4.15355269618672,0.264,2552,0.3305,2.55455455455455,0.161836114304918,0.2265625,20.799,44.1380901263297,0.3875,26205,0.4305,26.2312312312312,0.19891760950321,0.1640625,left
2.613,7.78080972650019,0.242,3400,0.2985,3.4034034034034,0.231098047104168,0.22265625,19.078,47.732672248681,0.309,22754,0.36,22.7767767767768,0.277444554526384,0.17578125,left
1.179,2.89188519827465,0.2205,1635,0.274,1.63663663663664,0.155920794657977,0.22265625,16.99,40.5007407339668,0.323,21506,0.3785,21.5275275275275,0.152772309458115,0.2421875,left
1.386,3.34544466401703,0.235,1874,0.2895,1.87587587587588,0.226232746768479,0.1640625,16.144,38.6355276914914,0.296,20070,0.352,20.0900900900901,0.245067095852038,0.18359375,left
1.499,3.51269127593075,0.229,2016,0.295,2.01801801801802,0.216217284006704,0.19140625,16.813,41.5271116260209,0.2935,21489,0.3575,21.5105105105105,0.199458027289588,0.265625,left
2.18,5.2480472558848,0.243,2826,0.3,2.82882882882883,0.226675809395761,0.20703125,14.739,38.3858437447974,0.3065,19801,0.3735,19.8208208208208,0.152233521611613,0.19140625,left
3.058,8.34877236484503,0.245,3965,0.287,3.96896896896897,0.250748327510347,0.21875,18.093,43.0367633541371,0.3125,22625,0.3685,22.6476476476476,0.224633530665219,0.22265625,left
2.626,6.81043317271376,0.225,3295,0.275,3.2982982982983,0.224789039339022,0.1953125,19.366,44.7570553097498,0.372,24430,0.4275,24.4544544544545,0.215159381382126,0.18359375,left
4.335,8.23401481660071,0.339,5648,0.4025,5.65365365365365,0.176265568123797,0.1953125,18.662,46.4694308120941,0.354,22637,0.4095,22.6596596596597,0.262499492452791,0.171875,left
7.7,14.9130144504724,0.4,9944,0.45,9.95395395395395,0.153403186239462,0.20703125,26.178,53.4177498590122,0.39,32749,0.437,32.7817817817818,0.177189800919454,0.23046875,left
5.429,8.98604473614504,0.397,6919,0.464,6.92592592592593,0.209133764926341,0.1953125,11.655,33.6720210263655,0.3735,14922,0.417,14.9369369369369,0.214385663469988,0.203125,left
3.723,8.27496223556337,0.2875,4540,0.337,4.54454454454455,0.231705078305104,0.203125,18.849,46.3403819578562,0.311,22421,0.3635,22.4434434434434,0.278692342314878,0.1796875,left
3.131,8.1205295393835,0.289,4088,0.344,4.09209209209209,0.197185036298799,0.2109375,14.756,40.9179911530368,0.34,19823,0.395,19.8428428428428,0.109403573473529,0.26953125,left
3.471,5.82022336341141,0.359,4369,0.414,4.37337337337337,0.24337154932416,0.18359375,17.865,45.245032876549,0.357,23024,0.412,23.047047047047,0.164391736456995,0.19921875,left
5.664,9.35008021355967,0.3955,7063,0.443,7.07007007007007,0.247387428327923,0.19140625,19.09,46.9486315029523,0.368,23441,0.417,23.4644644644645,0.284799436983971,0.17578125,left
6.249,10.7050922462163,0.398,8095,0.4445,8.1031031031031,0.212461148364462,0.18359375,19.734,48.8083394513683,0.363,25073,0.399,25.0980980980981,0.225047382638294,0.234375,left
4.438,9.09318426075267,0.3505,5752,0.414,5.75775775775776,0.20006461862259,0.25390625,15.806,42.2811541942743,0.359,20105,0.411,20.1251251251251,0.262894318017045,0.19921875,left
6.205,12.9141395377315,0.375,7930,0.428,7.93793793793794,0.18452380952381,0.26953125,20.179,50.8681531019163,0.365,25774,0.412,25.7997997997998,0.173775411553753,0.23046875,left
4.04,7.16826338801805,0.357,5162,0.408,5.16716716716717,0.169942950799029,0.28125,19.782,45.7169552791959,0.341,24654,0.386,24.6786786786787,0.242138974025227,0.1875,left
2.865,5.92157073756617,0.3185,3783,0.3745,3.78678678678679,0.217109526063112,0.20703125,17.564,41.4038645539278,0.365,22623,0.415,22.6456456456456,0.181324703692613,0.21875,left
2.627,9.35131006864814,0.2475,3483,0.3135,3.48648648648649,0.225496193157087,0.21484375,20.777,51.6208969313785,0.3085,26216,0.369,26.2422422422422,0.169046178354428,0.25,left
3.926,11.2507777508935,0.27,4788,0.3305,4.79279279279279,0.289877285134538,0.16796875,17.345,43.5852383267546,0.3545,21848,0.408,21.8698698698699,0.219512694925848,0.21875,left
2.498,6.83959063102464,0.2385,3203,0.2955,3.20620620620621,0.27567918248766,0.1953125,19.962,55.9319765429401,0.371,25747,0.41,25.7727727727728,0.238900136835541,0.22265625,left
2.504,6.19241471479422,0.28,3172,0.3495,3.17517517517517,0.238511775908384,0.1796875,19.216,47.9474921137696,0.361,23782,0.3995,23.8058058058058,0.228640878425785,0.18359375,left
2.173,7.04080961253747,0.2465,2773,0.3085,2.77577577577578,0.156133286276807,0.23046875,17.451,45.780443422929,0.391,22606,0.4225,22.6286286286286,0.183782039823236,0.2109375,left
2.553,5.81644221152416,0.2875,3431,0.3445,3.43443443443443,0.118353583715503,0.23046875,22.047,53.4569265858036,0.3925,28269,0.413,28.2972972972973,0.204571988297023,0.171875,left
1.623,4.53089395152877,0.2505,2078,0.307,2.08008008008008,0.206187439872879,0.19140625,19.091,46.9923504413218,0.407,23834,0.4145,23.8578578578579,0.173155465557612,0.1953125,left
3.633,7.98379608958044,0.338,4783,0.394,4.78778778778779,0.205143332259806,0.16015625,20.612,48.7902449266244,0.3985,24910,0.42,24.9349349349349,0.249098605249069,0.203125,left
2.993,7.12972650246838,0.278,3796,0.348,3.7997997997998,0.212596239229904,0.23828125,20.643,53.4083045976934,0.381,26432,0.409,26.4584584584585,0.172557670041118,0.23046875,left
2.69,5.71804162279359,0.2865,3491,0.3465,3.49449449449449,0.181857493460306,0.17578125,23.09,55.3164713263599,0.389,28898,0.42,28.9269269269269,0.218473960358338,0.203125,left
3.406,7.53777155398066,0.2845,4391,0.351,4.3953953953954,0.206117855647468,0.21484375,19.699,47.8998016697356,0.397,25630,0.4325,25.6556556556557,0.134890815569433,0.234375,left
3.869,8.57210592561711,0.285,4900,0.3305,4.90490490490491,0.223362984236371,0.1640625,23.626,53.5935070694203,0.3805,28949,0.413,28.977977977978,0.22760579004277,0.20703125,left
3.092,6.95974137450523,0.284,4040,0.3395,4.04404404404404,0.186958231239731,0.21484375,26.156,58.1221300366736,0.386,33442,0.413,33.4754754754755,0.221327944067146,0.203125,left
2.763,5.68990333837052,0.2735,3505,0.3205,3.50850850850851,0.220268056317131,0.203125,25.907,58.5397386396626,0.403,32186,0.419,32.2182182182182,0.220060017585258,0.2109375,left
3.221,6.79006627360882,0.2955,4085,0.3505,4.08908908908909,0.201843578788496,0.26953125,19.279,46.8652429845403,0.386,24449,0.415,24.4734734734735,0.232219858570026,0.1796875,left
2.953,6.87146272637784,0.243,3800,0.2985,3.8038038038038,0.220284183928964,0.21484375,17.999,45.0973724290008,0.3705,22466,0.41,22.4884884884885,0.242435570233679,0.2109375,left
2.184,5.63116329012044,0.2525,2863,0.3085,2.86586586586587,0.211467675507578,0.15234375,16.382,39.3402846964787,0.371,20865,0.409,20.8858858858859,0.223529414252961,0.19921875,left
5.111,9.55096853727411,0.356,6634,0.426,6.64064064064064,0.225827537360149,0.19140625,20.584,49.2620949615422,0.383,25466,0.419,25.4914914914915,0.208127782455868,0.25390625,left
4.326,8.26583329132641,0.3725,5794,0.4265,5.7997997997998,0.152726975182066,0.203125,19.268,46.3516127011779,0.3915,24325,0.4205,24.3493493493493,0.184368004644108,0.23046875,left
3.258,8.53381509056764,0.2745,4215,0.3275,4.21921921921922,0.217051023660707,0.203125,17.383,45.3347879668583,0.3715,22862,0.4035,22.8848848848849,0.201124759773987,0.1953125,left
4.878,9.2147707513535,0.3785,6113,0.4255,6.11911911911912,0.243741736014429,0.1796875,16.25,38.2418095806148,0.3905,20061,0.42,20.0810810810811,0.271355210704954,0.17578125,left
4.733,8.12606916042437,0.4085,6226,0.459,6.23223223223223,0.188784755320247,0.17578125,20.255,49.0757883278506,0.389,25972,0.421,25.997997997998,0.193929024675494,0.234375,left
5.275,8.57023920319614,0.414,7031,0.468,7.03803803803804,0.183237891117582,0.1953125,21.979,44.6237941013536,0.398,27410,0.431,27.4374374374374,0.226200841435943,0.1796875,left
3.338,7.88910641327647,0.2875,4153,0.35,4.15715715715716,0.240362187727142,0.2109375,20.038,49.0412887269493,0.395,25399,0.4245,25.4244244244244,0.212349990855035,0.2109375,left
1.697,3.84564688966629,0.2685,2379,0.3225,2.38138138138138,0.15606194848997,0.2421875,18.848,42.7038171595936,0.3865,24062,0.418,24.0860860860861,0.193523275506168,0.17578125,left
1.747,3.66892354785433,0.294,2384,0.3485,2.38638638638639,0.188165936390168,0.21484375,20.563,45.2651411132231,0.3725,27025,0.417,27.0520520520521,0.201083023391258,0.20703125,left
1.792,4.02119385257662,0.277,2358,0.345,2.36036036036036,0.251635872402757,0.203125,17.76,39.9597297288157,0.399,23572,0.426,23.5955955955956,0.169973805598205,0.234375,left
2.224,4.52061942658304,0.3055,2917,0.3615,2.91991991991992,0.208611950110069,0.19140625,15.393,32.8527472215034,0.3855,19097,0.4085,19.1161161161161,0.239146636954391,0.22265625,left
1.935,3.63524414585871,0.318,2616,0.37,2.61861861861862,0.181911454675355,0.23828125,20.292,43.0953361745793,0.3995,25886,0.433,25.9119119119119,0.219930434135218,0.18359375,left
2.906,5.91929049802424,0.307,3800,0.3685,3.8038038038038,0.202921721458372,0.20703125,21.067,47.1641707231241,0.3945,26233,0.423,26.2592592592593,0.236234432422887,0.203125,left
4.926,9.11142140393034,0.371,6240,0.434,6.24624624624625,0.210737087837496,0.234375,25.266,55.234572506719,0.411,32358,0.417,32.3903903903904,0.198003036499712,0.23046875,left
2.764,5.01776842829559,0.328,3598,0.3835,3.6016016016016,0.206103931142916,0.1796875,20.807,46.7940915073688,0.412,26563,0.427,26.5895895895896,0.166427101006067,0.21484375,left
4.015,7.12102520708922,0.392,5265,0.4475,5.27027027027027,0.204348569529691,0.19140625,18.563,39.4161007711316,0.415,24110,0.434,24.1341341341341,0.160220541442239,0.26171875,left
4.454,7.3589401410801,0.402,5942,0.458,5.94794794794795,0.160810892246493,0.265625,22.8,53.6943386214971,0.409,29339,0.424,29.3683683683684,0.174573000367785,0.21875,left
5.257,8.97557797581861,0.3875,6853,0.439,6.85985985985986,0.189470628348845,0.25,20.013,44.0321587024756,0.404,25940,0.424,25.965965965966,0.200184378606572,0.1875,left
1.44,3.28542234727896,0.2315,1951,0.2795,1.95295295295295,0.198728570609749,0.21484375,19.035,42.7369044269704,0.358,23249,0.4095,23.2722722722723,0.256464733654795,0.21484375,left
1.807,4.30313838959427,0.2315,2410,0.2785,2.41241241241241,0.198088308002786,0.16796875,21.572,53.3905047737891,0.36,26711,0.415,26.7377377377377,0.252964296704505,0.19921875,left
2.217,5.62396657173565,0.2055,2903,0.2465,2.90590590590591,0.231311909202453,0.203125,24.53,57.3588354135612,0.3815,31233,0.4415,31.2642642642643,0.215898190633462,0.23046875,left
1.849,4.8640518089346,0.197,2392,0.2465,2.39439439439439,0.216055367274666,0.2109375,22.821,56.9657879783998,0.375,28099,0.436,28.1271271271271,0.270395927864977,0.16015625,left
2.319,6.40382698079828,0.181,2852,0.2265,2.85485485485485,0.301933568512113,0.1640625,19.458,47.801359813294,0.381,23670,0.437,23.6936936936937,0.227980420508762,0.23828125,left
1.272,3.38850999703409,0.195,1688,0.249,1.68968968968969,0.233569903268627,0.1640625,17.551,43.0563700281387,0.3805,21589,0.429,21.6106106106106,0.241094846256399,0.1953125,left
1.729,4.48029016917431,0.217,2194,0.2645,2.1961961961962,0.267523502555188,0.16796875,22.599,55.9239394177485,0.3785,27280,0.442,27.3073073073073,0.232871014281597,0.25,left
2.196,5.75204311527652,0.2145,2837,0.2695,2.83983983983984,0.231274337916397,0.18359375,22.042,54.8892156985323,0.375,27245,0.43,27.2722722722723,0.249725751973286,0.2265625,left
2.578,7.24955171027837,0.2035,3329,0.247,3.33233233233233,0.24819613836817,0.19921875,21.799,51.6441961889233,0.369,27367,0.413,27.3943943943944,0.216002253022185,0.23046875,left
1.629,3.97479559222861,0.2165,2153,0.263,2.15515515515515,0.213809438607287,0.25,21.297,50.2829891712893,0.3715,26040,0.4255,26.0660660660661,0.255834901308754,0.2265625,left
1.839,4.35694847341577,0.223,2487,0.261,2.48948948948949,0.166094246145606,0.2265625,23.71,54.7016087514801,0.3685,29100,0.4185,29.1291291291291,0.202988389156285,0.23828125,left
12.205,26.4908852249222,0.3215,15528,0.366,15.5435435435435,0.133966103174318,0.2265625,14.9,26.7165117483552,0.399,18407,0.4455,18.4254254254254,0.215907327289062,0.16015625,right
16.083,30.2495454511303,0.3945,20850,0.4405,20.8708708708709,0.185920784620109,0.2421875,16.744,27.6498101259303,0.41,20386,0.4365,20.4064064064064,0.244367477522936,0.203125,right
15.139,25.9223648612545,0.421,19727,0.463,19.7467467467467,0.179552192617547,0.1640625,17.415,27.6216400671647,0.415,21279,0.44,21.3003003003003,0.251806132660003,0.17578125,right
13.295,22.0824138173344,0.42,17035,0.465,17.0520520520521,0.211045663486032,0.234375,15.634,26.7259798697821,0.402,19132,0.434,19.1511511511512,0.261942698469028,0.19140625,right
12.611,29.3525978407363,0.294,16060,0.3455,16.0760760760761,0.168319834001094,0.234375,15.111,26.3852041871955,0.396,18499,0.44,18.5175175175175,0.236362421109899,0.19140625,right
9.133,22.3949771154159,0.317,11786,0.375,11.7977977977978,0.220319604765076,0.17578125,12.274,20.641802246897,0.398,15479,0.4295,15.4944944944945,0.196341432597826,0.20703125,right
13.673,23.3522375801549,0.427,17356,0.458,17.3733733733734,0.182722851917505,0.21484375,12.61,20.3868585122868,0.386,14974,0.426,14.988988988989,0.250724890050832,0.21875,right
10.852,26.5892459464348,0.3555,14527,0.4045,14.5415415415415,0.156040588111616,0.234375,14.423,28.7389109049038,0.4,18199,0.437,18.2172172172172,0.180339026242502,0.16796875,right
12.434,22.6369609267675,0.402,15607,0.441,15.6226226226226,0.24800280702169,0.1953125,15.155,25.6851124194542,0.394,18682,0.443,18.7007007007007,0.248382709126563,0.2109375,right
9.13,23.1769281830013,0.2675,12198,0.328,12.2102102102102,0.183669982946589,0.19921875,12.026,19.3400103412589,0.41,15072,0.4555,15.0870870870871,0.22856415521354,0.22265625,right
10.712,24.0039163471297,0.3,13090,0.3555,13.1031031031031,0.298321457662589,0.171875,12.636,19.1604801609981,0.389,15282,0.4285,15.2972972972973,0.251043678723344,0.171875,right
9.264,23.1203806197043,0.286,12258,0.3435,12.2702702702703,0.170712294076111,0.23046875,13.649,23.9664974495649,0.4145,17130,0.4585,17.1471471471471,0.251029049532587,0.16796875,right
12.865,24.7221560548428,0.401,16425,0.453,16.4414414414414,0.251197237358611,0.17578125,15.863,25.9078945497314,0.401,19580,0.442,19.5995995995996,0.246636608044728,0.16015625,right
13.744,28.9270115981586,0.399,17648,0.4415,17.6656656656657,0.152133643700973,0.265625,13.485,22.229147532013,0.387,16332,0.432,16.3483483483484,0.261400220395509,0.1796875,right
13.117,27.1723572772036,0.316,16656,0.373,16.6726726726727,0.225344791759907,0.19921875,15.697,25.4806004638823,0.409,19807,0.445,19.8268268268268,0.22445299229286,0.23046875,right
12.321,22.5856813047559,0.399,16131,0.434,16.1471471471471,0.146708000066,0.21875,14.21,22.8553276064904,0.3915,17131,0.43,17.1481481481481,0.266817354494898,0.1640625,right
10.757,27.2228396755372,0.2765,14765,0.3355,14.7797797797798,0.107685613155138,0.2421875,12.76,22.3935705058394,0.406,16611,0.444,16.6276276276276,0.180262226687237,0.2578125,right
13.128,25.994422478678,0.376,16734,0.4305,16.7507507507508,0.182530923830719,0.19921875,17.261,28.0334978195729,0.4,20872,0.428,20.8928928928929,0.236354669749585,0.21484375,right
14.974,29.2807445260533,0.4175,20069,0.4615,20.0890890890891,0.184221877519955,0.1640625,16.8,28.5203436164433,0.404,20289,0.435,20.3093093093093,0.246559588563718,0.18359375,right
11.695,26.4620671906032,0.387,14934,0.447,14.948948948949,0.218906551377101,0.203125,15.099,24.7348135226446,0.392,17912,0.417,17.9299299299299,0.268046624075541,0.1875,right
10.571,22.2966589425411,0.359,13702,0.398,13.7157157157157,0.221089502086183,0.16015625,13.463,23.0159292664885,0.412,16641,0.4445,16.6576576576577,0.280004478366656,0.20703125,right
11.77,23.1893510042864,0.375,14766,0.409,14.7807807807808,0.23575702836073,0.20703125,14.184,21.7578031979334,0.401,17153,0.439,17.1701701701702,0.257246317065032,0.19921875,right
14.84,29.7175369100469,0.3875,19129,0.4335,19.1481481481482,0.242724059587953,0.17578125,15.298,22.8101731690051,0.408,18865,0.4375,18.8838838838839,0.265057410419185,0.16796875,right
11.996,23.8912536297282,0.3705,15512,0.412,15.5275275275275,0.183695628064276,0.2578125,13.119,21.4543002682446,0.397,15912,0.427,15.9279279279279,0.246802028567351,0.18359375,right
13.943,26.9921284822076,0.3745,18336,0.4275,18.3543543543544,0.159980877238989,0.26953125,14.927,24.2481545689564,0.407,17734,0.436,17.7517517517518,0.282322134478767,0.171875,right
18.985,33.6781680024315,0.3985,23931,0.4335,23.954954954955,0.234443056426343,0.1796875,14.985,23.109586755284,0.404,18572,0.436,18.5905905905906,0.225535480589109,0.1640625,right
12.248,22.9671939949137,0.4115,16011,0.453,16.027027027027,0.169608160004157,0.25390625,13.534,22.0696624351167,0.404,16604,0.4435,16.6206206206206,0.242896978279187,0.15625,right
12.449,23.1892000724475,0.3835,15705,0.4395,15.7207207207207,0.19141054999479,0.18359375,10.421,18.1085891222922,0.394,12626,0.4275,12.6386386386386,0.238583085414271,0.16796875,right
15.764,29.3272569463971,0.412,20908,0.447,20.9289289289289,0.138401626744167,0.22265625,11.839,18.8139044326264,0.376,13784,0.408,13.7977977977978,0.305645604605934,0.171875,right
13.884,31.98718493397,0.321,17864,0.372,17.8818818818819,0.191797936271285,0.16015625,11.589,18.2434371761464,0.418,14679,0.4405,14.6936936936937,0.201649074958943,0.23828125,right
13.441,28.5202208967602,0.329,17398,0.3775,17.4154154154154,0.211350330518879,0.26171875,10.946,17.3547111759315,0.397,13782,0.443,13.7957957957958,0.205549946675087,0.16796875,right
14.915,32.4265786045953,0.3415,19033,0.394,19.0520520520521,0.12581957001967,0.25390625,10.908,18.0305851263901,0.41,13865,0.445,13.8788788788789,0.205987329363939,0.2109375,right
15.336,31.4765627094192,0.41,19744,0.458,19.7637637637638,0.190965523986572,0.20703125,10.886,16.0388902359234,0.401,13181,0.426,13.1941941941942,0.269101547305659,0.1640625,right
12.58,25.2845011815539,0.345,15710,0.405,15.7257257257257,0.229345007248167,0.203125,9.694,14.7125796514411,0.4,11601,0.436,11.6126126126126,0.269415160529727,0.16015625,right
11.372,24.0459144138874,0.341,14112,0.394,14.1261261261261,0.178890592570802,0.2734375,11.037,15.8378344479288,0.3935,13252,0.4325,13.2652652652653,0.279608681748423,0.16015625,right
13.843,24.1939455236222,0.421,17876,0.463,17.8938938938939,0.114700872712455,0.24609375,11.119,16.0764734938978,0.4035,14079,0.446,14.0930930930931,0.22484792669525,0.17578125,right
11.699,26.5675177613566,0.2945,14935,0.351,14.94994994995,0.158207394891378,0.2578125,10.241,16.3411443907702,0.3955,12554,0.4295,12.5665665665666,0.253603059144132,0.1953125,right
13.778,28.4256574242356,0.335,18230,0.381,18.2482482482483,0.151273141043992,0.22265625,11.635,18.4978647416398,0.3795,14188,0.422,14.2022022022022,0.254688052707381,0.16796875,right
14.723,29.1410878314451,0.344,18048,0.3955,18.0660660660661,0.27590965053441,0.1796875,11.722,17.0257452112969,0.401,14054,0.433,14.0680680680681,0.245388406567961,0.17578125,right
11.331,25.1971625386669,0.2905,14151,0.3445,14.1651651651652,0.205137204683715,0.20703125,9.467,15.5744341791283,0.399,11716,0.435,11.7277277277277,0.251749038712016,0.1640625,right
14.33,29.9479882462913,0.318,18376,0.371,18.3943943943944,0.197835009003895,0.21875,8.729,13.1799468891191,0.4065,10942,0.449,10.952952952953,0.205997621344156,0.2421875,right
14.162,27.3124879862674,0.329,18194,0.377,18.2122122122122,0.173730896852075,0.21484375,9.539,15.7583945882821,0.394,12201,0.435,12.2132132132132,0.208632237536899,0.17578125,right
12.83,28.777108958337,0.323,16462,0.38,16.4784784784785,0.258406283212787,0.16796875,9.755,14.4118354139922,0.4005,12032,0.4315,12.044044044044,0.278488474024439,0.18359375,right
17.527,33.8063751384262,0.383,22952,0.424,22.974974974975,0.147413293225686,0.25,11.728,16.4700941102351,0.409,14782,0.4435,14.7967967967968,0.232578255360405,0.19140625,right
10.152,19.0122066052313,0.348,12870,0.394,12.8828828828829,0.175491829534786,0.22265625,11.908,17.3788377056695,0.403,14319,0.426,14.3333333333333,0.261706095344198,0.17578125,right
16.519,34.3759945310678,0.353,20976,0.398,20.996996996997,0.188427924037815,0.1953125,12.279,17.6610022365663,0.419,15325,0.448,15.3403403403403,0.222413268605818,0.1796875,right
15.504,29.3477085987986,0.342,19456,0.3845,19.4754754754755,0.233338790798578,0.16796875,12.713,18.3639592680881,0.417,15774,0.446,15.7897897897898,0.236325137021559,0.16796875,right
13.233,29.3150302745878,0.3175,17082,0.362,17.0990990990991,0.209866257561607,0.16796875,11.197,18.1338633500972,0.4,13723,0.4435,13.7367367367367,0.244290635236831,0.1953125,right
13.054,23.561918427836,0.3885,16911,0.4275,16.9279279279279,0.184121821555664,0.2109375,10.385,14.3263742796285,0.41,12683,0.4345,12.6956956956957,0.268191804186387,0.1953125,right
18.395,32.8922635280699,0.445,24044,0.4835,24.0680680680681,0.160762648882324,0.2265625,9.914,14.0818322671448,0.406,12297,0.444,12.3093093093093,0.246901093431757,0.16796875,right
14.378,25.3735295140428,0.417,17903,0.463,17.9209209209209,0.192446999980035,0.23046875,12.148,17.5207876535275,0.393,14844,0.427,14.8588588588589,0.246847683419026,0.2265625,right
15.021,25.9477359320616,0.433,19908,0.468,19.9279279279279,0.167403005402074,0.1796875,12.346,17.6258333136337,0.3985,15000,0.437,15.015015015015,0.282689981229178,0.16015625,right
11.249,26.2145951713926,0.391,15035,0.451,15.0500500500501,0.140755490969724,0.203125,6.637,10.8442150476648,0.388,8128,0.4275,8.13613613613614,0.293815633144047,0.171875,right
17.816,34.4373053533519,0.408,21986,0.4425,22.008008008008,0.250497227954533,0.20703125,13.16,19.1806673502253,0.4055,16054,0.436,16.0700700700701,0.270042036498929,0.171875,right
13.745,29.1056180143971,0.378,18846,0.407,18.8648648648649,0.0861371880642946,0.21484375,12.4,17.5737872981324,0.385,14695,0.421,14.7097097097097,0.280644513229826,0.17578125,right
15.948,27.6617786846761,0.359,20704,0.392,20.7247247247247,0.176614651668908,0.27734375,12.095,17.2593452946512,0.413,15233,0.443,15.2482482482482,0.224082148732236,0.1875,right
16.17,29.3084629416147,0.349,21394,0.393,21.4154154154154,0.147399962577389,0.21875,12.707,18.9391393679861,0.399,15757,0.443,15.7727727727728,0.214690202057331,0.20703125,right
15.57,27.7939201984895,0.3525,19717,0.4025,19.7367367367367,0.170294326639476,0.18359375,10.676,15.4769506040434,0.4225,13558,0.451,13.5715715715716,0.229103087060151,0.2265625,right
12.495,25.8780022412859,0.351,15496,0.396,15.5115115115115,0.233818347608826,0.234375,10.302,15.0024664638852,0.402,12770,0.428,12.7827827827828,0.229244274325899,0.18359375,right
15.727,30.7228416654449,0.3335,21022,0.3815,21.043043043043,0.131845301120258,0.20703125,11.671,16.3689034452525,0.419,14904,0.448,14.9189189189189,0.223396364696539,0.1875,right
11.182,27.544327909753,0.271,14224,0.315,14.2382382382382,0.220357458250405,0.22265625,8.393,13.342301150851,0.394,10264,0.422,10.2742742742743,0.230460053054936,0.16015625,right
14.074,26.190952636359,0.3485,18321,0.3975,18.3393393393393,0.175647430365102,0.19140625,10.784,15.6715666096278,0.4065,13499,0.437,13.5125125125125,0.243263610514913,0.1875,right
12.655,25.965380798286,0.309,16738,0.365,16.7547547547548,0.200872332228656,0.18359375,10.053,15.4374544533741,0.4155,12790,0.454,12.8028028028028,0.215131501737739,0.18359375,right
18.003,39.4562669293485,0.3845,23305,0.4425,23.3283283283283,0.155488576934018,0.203125,10.871,15.8846781522321,0.396,13130,0.433,13.1431431431431,0.258091683281391,0.2109375,right
11.501,26.1648428239116,0.316,15238,0.3685,15.2532532532533,0.219829006581003,0.203125,10.836,16.2162264414382,0.409,13398,0.452,13.4114114114114,0.242249509354875,0.1796875,right
14.39,32.3177041263763,0.3655,17733,0.4225,17.7507507507508,0.271629037349328,0.16796875,10.914,16.0891889167851,0.401,13345,0.432,13.3583583583584,0.260800183330271,0.1953125,right
13.039,24.9596674657336,0.36,16952,0.4035,16.968968968969,0.151096803309843,0.265625,10.887,15.7041077428805,0.395,13073,0.425,13.0860860860861,0.281932557124377,0.1640625,right
9.726,24.3569702549393,0.227,11980,0.269,11.991991991992,0.255403763979944,0.171875,8.601,15.8487538942341,0.378,10514,0.4245,10.5245245245245,0.27347162447859,0.16796875,right
11.109,29.7003535332494,0.212,14038,0.246,14.0520520520521,0.202424532769925,0.1953125,8.222,16.139021035986,0.35,9974,0.398,9.98398398398398,0.258800513395275,0.1796875,right
11.49,24.1480848101873,0.3505,14270,0.4015,14.2842842842843,0.229018390268118,0.22265625,9.936,16.7837421333861,0.3875,12048,0.432,12.0600600600601,0.280789766823346,0.16796875,right
8.62,20.6921724330724,0.2345,10455,0.2725,10.4654654654655,0.256232263111805,0.19140625,8.998,16.2504153793065,0.393,11072,0.438,11.0830830830831,0.264254161967204,0.18359375,right
9.259,20.2119519096994,0.2785,11626,0.3245,11.6376376376376,0.226065971897053,0.17578125,10.514,17.9449157144858,0.391,12713,0.4335,12.7257257257257,0.254099231255304,0.20703125,right
11.113,25.1371637222659,0.3005,13231,0.3485,13.2442442442442,0.317558925214647,0.1875,11.137,16.7569388612598,0.3935,13777,0.4385,13.7907907907908,0.26157537111923,0.171875,right
9.883,21.7087770268157,0.249,12220,0.289,12.2322322322322,0.255317528419319,0.1796875,9.053,13.9367499798195,0.4035,11355,0.443,11.3663663663664,0.226876391881578,0.1640625,right
10.569,22.1095680645281,0.261,13442,0.302,13.4554554554555,0.206146341650408,0.21875,11.624,18.2946440249599,0.386,13954,0.422,13.967967967968,0.278335806249194,0.171875,right
9.69,20.3112776555292,0.2755,12133,0.3215,12.1451451451451,0.246412719038871,0.22265625,10.271,16.1606621151486,0.394,12353,0.435,12.3653653653654,0.264622280283984,0.1875,right
6.946,17.058429001523,0.1905,8586,0.234,8.5945945945946,0.254465806463748,0.1796875,10.767,22.5655268052842,0.377,12282,0.4305,12.2942942942943,0.333846083214606,0.16796875,stop
6.983,20.0219629407309,0.217,8430,0.2605,8.43843843843844,0.266844566063773,0.19140625,12.249,24.4700020433183,0.3995,14681,0.429,14.6956956956957,0.310332951398456,0.17578125,stop
6.476,19.0415335516864,0.176,7670,0.218,7.67767767767768,0.288965123220039,0.16796875,12.215,26.3736421451418,0.404,14465,0.441,14.4794794794795,0.330154586028955,0.17578125,stop
4.963,16.966054343895,0.156,5926,0.191,5.93193193193193,0.286436869487969,0.16015625,8.704,20.486678598543,0.374,10399,0.434,10.4094094094094,0.312056140093326,0.16796875,stop
6.178,17.4095376159162,0.21,7638,0.255,7.64564564564565,0.246277869830233,0.2109375,11.118,22.3253667383091,0.4075,13110,0.451,13.1231231231231,0.310297805794321,0.1640625,stop
7.172,17.6910711942494,0.245,8636,0.291,8.64464464464465,0.316873035205038,0.1875,10.692,21.4078023159782,0.385,13114,0.427,13.1271271271271,0.251960460954248,0.203125,stop
12.623,33.4095944303429,0.262,15850,0.305,15.8658658658659,0.227850382130831,0.21875,13.792,28.2642176612055,0.3735,16827,0.4115,16.8438438438438,0.295803830034376,0.171875,stop
4.822,12.8984495192252,0.2195,6335,0.2705,6.34134134134134,0.14704652705626,0.16796875,11.529,22.4447543982998,0.3935,14157,0.4335,14.1711711711712,0.251294530884803,0.2265625,stop
6.066,16.0296600088711,0.183,7368,0.2255,7.37537537537538,0.264058971989207,0.21875,14.315,27.2681315824902,0.4005,17193,0.449,17.2102102102102,0.305468911246459,0.19921875,stop
8.042,20.9212332332489,0.222,9866,0.261,9.87587587587588,0.298253590375099,0.18359375,11.765,22.0066580834074,0.412,14548,0.444,14.5625625625626,0.302599367097937,0.1875,stop
6.742,15.8037337360511,0.26,8256,0.316,8.26426426426426,0.259979612856532,0.2265625,14.884,30.0066326001436,0.3855,17747,0.426,17.7647647647648,0.336937566371899,0.1875,stop
5.92,15.6298432493739,0.222,7214,0.267,7.22122122122122,0.292592459710254,0.17578125,12.879,27.1877362058705,0.376,15064,0.413,15.0790790790791,0.317373732133787,0.1953125,stop
4.621,11.8731209039578,0.208,5658,0.258,5.66366366366366,0.272630535868387,0.19140625,11.198,22.6918046880366,0.401,13556,0.449,13.5695695695696,0.312842561100175,0.171875,stop
1.072,4.34856298103178,0.1125,1340,0.1465,1.34134134134134,0.277458980475391,0.26171875,4.003,7.27330736322892,0.389,4981,0.437,4.98598598598599,0.239110425241611,0.21484375,stop
4.577,14.7841469148544,0.1295,5510,0.1635,5.51551551551552,0.261605724520831,0.18359375,6.312,20.1735966054643,0.273,7388,0.329,7.3953953953954,0.361935457493797,0.1484375,stop
7.104,18.4434270134376,0.201,9138,0.2425,9.14714714714715,0.181389944132553,0.2421875,10.189,22.9602918099923,0.3595,12301,0.4165,12.3133133133133,0.296043535940996,0.16015625,stop
6.699,16.7464324558994,0.231,7864,0.278,7.87187187187187,0.274348082403988,0.203125,9.2,18.1213134181825,0.3905,11034,0.4425,11.045045045045,0.293641274516049,0.203125,stop
7.889,19.6688332139962,0.204,9316,0.25,9.32532532532533,0.308092916540259,0.16796875,11.41,25.5067442061899,0.386,13664,0.425,13.6776776776777,0.297033714075059,0.16796875,stop
8.027,20.197301799993,0.224,9720,0.272,9.72972972972973,0.258475068870949,0.19140625,11.591,23.7338366051509,0.3935,13738,0.4325,13.7517517517518,0.305962652599757,0.1640625,stop
9.491,22.6351275675663,0.21,11200,0.2545,11.2112112112112,0.270411366914212,0.171875,11.935,28.4648028273515,0.38,14685,0.429,14.6996996996997,0.285953129058916,0.19140625,stop
7.09,17.8793735908169,0.2345,8651,0.2835,8.65965965965966,0.270280077110722,0.1953125,11.718,27.4822488162814,0.38,14584,0.4265,14.5985985985986,0.27834112530075,0.2109375,stop
6.085,16.316709227047,0.212,7428,0.26,7.43543543543544,0.270991876653449,0.203125,10.989,23.5342516345857,0.394,13320,0.4385,13.3333333333333,0.295267805594609,0.1953125,stop
7.07,18.7316843876892,0.217,9072,0.263,9.08108108108108,0.178236605964778,0.2421875,9.836,19.5683928824009,0.375,11762,0.4315,11.7737737737738,0.326608039787868,0.16015625,stop
4.567,13.6793640203045,0.218,5558,0.261,5.56356356356356,0.328267197475456,0.1640625,11.11,23.0220329250047,0.399,13349,0.441,13.3623623623624,0.344113249710858,0.15625,stop
6.213,16.445151261086,0.213,7724,0.259,7.73173173173173,0.243695443035152,0.171875,10.688,24.8951802564271,0.385,12808,0.429,12.8208208208208,0.369637421820078,0.1875,stop
7.359,21.8976026085049,0.199,9244,0.243,9.25325325325325,0.225192934017499,0.20703125,9.006,18.1592951405059,0.381,10922,0.42,10.9329329329329,0.275576517522063,0.19921875,stop
6.754,16.1603217789746,0.2315,8431,0.2775,8.43943943943944,0.211037472581035,0.21875,10.978,22.1916200400061,0.3975,12897,0.4365,12.9099099099099,0.329589392995282,0.16796875,stop
9.87,24.1365283336274,0.255,12126,0.3065,12.1381381381381,0.259076908147758,0.1796875,11.792,22.780913063352,0.387,13769,0.434,13.7827827827828,0.303667503524016,0.1640625,stop
8.376,21.4273190110196,0.232,10264,0.284,10.2742742742743,0.19430405133904,0.23046875,11.336,20.6115501600438,0.399,13811,0.434,13.8248248248248,0.257711622955116,0.203125,stop
7.03,19.0899449973016,0.223,8762,0.279,8.77077077077077,0.220864721882144,0.2109375,12.705,24.5587255369655,0.394,14838,0.441,14.8528528528529,0.321855051727796,0.1640625,stop
7.142,18.0793252086465,0.22,9312,0.256,9.32132132132132,0.171223747560946,0.26171875,15.173,30.3642059010276,0.389,17836,0.444,17.8538538538539,0.314816541083548,0.15625,stop
6.833,17.1096171786513,0.2145,8517,0.2615,8.52552552552553,0.254474385374818,0.1875,13.123,25.1360895924565,0.402,16312,0.442,16.3283283283283,0.264847239169121,0.1953125,stop
5.134,12.9807549857472,0.1805,6531,0.215,6.53753753753754,0.238526936805623,0.1640625,7.03,16.8160637486898,0.299,8390,0.364,8.3983983983984,0.228829044826538,0.23828125,stop
7.644,21.111134502911,0.194,9558,0.231,9.56756756756757,0.243335354221577,0.1875,10.685,22.5343959315532,0.35,12498,0.4035,12.5105105105105,0.352013264665972,0.171875,stop
7.222,16.0195505554931,0.2145,9167,0.2475,9.17617617617618,0.190950696954397,0.26953125,10.847,22.5774887886142,0.372,12802,0.4235,12.8148148148148,0.324870109148329,0.19921875,stop
7.36,18.4083133393584,0.188,9040,0.224,9.04904904904905,0.155242887782426,0.16015625,9.185,23.4503518097277,0.342,11054,0.394,11.0650650650651,0.278831961621604,0.19921875,stop
5.527,13.0778056263274,0.209,6790,0.243,6.7967967967968,0.267669784224832,0.16796875,9.329,21.1559684250095,0.3545,11419,0.4025,11.4304304304304,0.238702154842242,0.22265625,stop
8.12,20.5493065576433,0.201,9846,0.245,9.85585585585586,0.281596674140874,0.17578125,10.735,25.5730522229944,0.3525,12762,0.409,12.7747747747748,0.312682434464337,0.17578125,stop
4.61,13.4441065154959,0.183,5904,0.226,5.90990990990991,0.191509180788989,0.25,9.116,20.4227813972534,0.3925,11263,0.444,11.2742742742743,0.284227046504214,0.18359375,stop
7.164,18.4526962799478,0.215,8798,0.257,8.80680680680681,0.283625218372051,0.1953125,10.307,20.075582183339,0.379,12747,0.445,12.7597597597598,0.257336554393935,0.203125,stop
6.739,15.8104712137242,0.203,8470,0.232,8.47847847847848,0.230144104328481,0.203125,10.031,20.8007932541045,0.3785,11703,0.4225,11.7147147147147,0.367485355681235,0.171875,stop
4.796,12.9421791055448,0.172,5852,0.207,5.85785785785786,0.240994402239706,0.23046875,8.912,20.329240025146,0.341,10330,0.394,10.3403403403403,0.318535854289917,0.16796875,stop
7.04,16.5904791974192,0.2345,8517,0.2795,8.52552552552553,0.288347376899877,0.1875,8.658,16.9905267722928,0.3605,10287,0.413,10.2972972972973,0.311726312694806,0.1640625,stop
5.042,12.9885334045072,0.192,6298,0.239,6.3043043043043,0.234501604354951,0.17578125,7.647,17.183393145709,0.35,9354,0.4135,9.36336336336336,0.234701799904548,0.1796875,stop
5.347,14.107976467233,0.227,6756,0.2685,6.76276276276276,0.269871512471527,0.203125,8.674,17.00623415104,0.381,10512,0.432,10.5225225225225,0.332104490955476,0.15625,stop
8.609,21.2268462094584,0.215,10572,0.254,10.5825825825826,0.228365673443401,0.21875,12.407,25.5152307455763,0.3615,14537,0.4035,14.5515515515516,0.297999589479666,0.19140625,stop
7.803,19.1294798674716,0.263,9620,0.309,9.62962962962963,0.236638991295956,0.19921875,10.916,21.992726070226,0.391,13362,0.447,13.3753753753754,0.271876817385616,0.1796875,stop
7.127,17.2490289581762,0.249,8820,0.286,8.82882882882883,0.294002671529245,0.16796875,12.442,23.6806249917522,0.396,15200,0.4495,15.2152152152152,0.279409374640738,0.2421875,stop
6.47,15.0618060006096,0.232,7628,0.283,7.63563563563564,0.282705367020536,0.1640625,12.606,23.6848474768152,0.388,14937,0.449,14.951951951952,0.320436891396246,0.16796875,stop
6.82,15.2156498382422,0.2465,8669,0.2875,8.67767767767768,0.212393818267098,0.1875,10.505,20.3401327429297,0.3965,12732,0.439,12.7447447447447,0.304219276644622,0.1796875,stop
9.343,25.4197757661235,0.262,11244,0.31,11.2552552552553,0.262708348826686,0.1796875,13.647,26.9501205934222,0.382,16399,0.427,16.4154154154154,0.299853162638823,0.21875,stop
7.957,17.3985918970473,0.236,9572,0.271,9.58158158158158,0.232322062614417,0.21875,11.671,21.7613648469024,0.398,13899,0.433,13.9129129129129,0.32399249917643,0.15234375,stop
8.934,21.3565446643412,0.236,10946,0.27,10.956956956957,0.238888237041427,0.21484375,10.821,22.8088798497427,0.3765,13077,0.4355,13.0900900900901,0.298730486023742,0.16796875,stop
8.977,23.2365444935343,0.182,10214,0.2175,10.2242242242242,0.334240638026366,0.171875,11.603,26.229125033062,0.359,13968,0.4135,13.981981981982,0.29347963193953,0.171875,stop
5.224,12.7191980879299,0.201,6474,0.236,6.48048048048048,0.283400071124112,0.20703125,8.721,19.9268913782356,0.3755,10653,0.4295,10.6636636636637,0.234383326737445,0.16796875,stop
6.711,15.7757725642835,0.219,7962,0.261,7.96996996996997,0.309074611668599,0.15625,10.722,22.2543928247885,0.365,12614,0.4085,12.6266266266266,0.308520012863231,0.19140625,stop
6.353,16.9408087174137,0.223,7862,0.276,7.86986986986987,0.250227335509794,0.19921875,10.125,19.6138471493993,0.3875,12303,0.426,12.3153153153153,0.284175912084266,0.18359375,stop
7.668,16.2552145479535,0.268,9304,0.3215,9.31331331331331,0.220650312954315,0.14453125,10.583,20.1930928785067,0.3785,12775,0.4275,12.7877877877878,0.326765733035034,0.171875,stop
5.289,11.5056942424175,0.268,6390,0.3115,6.3963963963964,0.276473139585203,0.23828125,9.911,18.1630118647762,0.4105,12249,0.448,12.2612612612613,0.310305530818116,0.1875,stop
4.515,10.5530564293005,0.208,5512,0.251,5.51751751751752,0.291702152513207,0.1640625,8.171,15.4253363010341,0.374,9980,0.4205,9.98998998998999,0.284360022484884,0.21484375,stop
12.16,26.6758692454435,0.284,14936,0.322,14.950950950951,0.224156195307937,0.2265625,12.38,25.1925782721817,0.3945,15037,0.437,15.0520520520521,0.326699095524317,0.1796875,stop
6.575,17.4839068860481,0.234,8230,0.273,8.23823823823824,0.233758591031308,0.21875,10.982,20.8763981567702,0.3935,12835,0.436,12.8478478478478,0.337754553104539,0.1796875,stop
5.201,13.2116236700869,0.192,6290,0.231,6.2962962962963,0.304620477274966,0.1875,9.023,16.8842826320812,0.388,10859,0.434,10.8698698698699,0.327979946176865,0.15234375,stop
5.645,14.8937235102576,0.205,6826,0.248,6.83283283283283,0.269948961473117,0.171875,10.021,20.0965917508417,0.3795,12368,0.4285,12.3803803803804,0.239461925727245,0.19140625,stop
5.758,15.8332561401627,0.207,7238,0.25,7.24524524524525,0.209208707652003,0.1953125,9.255,19.5118169323105,0.3785,10931,0.423,10.9419419419419,0.338716634130911,0.171875,stop
6.415,14.9121091734201,0.2095,7351,0.2545,7.35835835835836,0.297399267643304,0.15234375,8.497,17.5597551235773,0.363,9682,0.4215,9.69169169169169,0.371213530980002,0.15625,stop
4.717,11.3867027712152,0.183,5728,0.221,5.73373373373373,0.259336447195039,0.24609375,9.362,18.4852914502315,0.362,11216,0.4245,11.2272272272272,0.302679643416435,0.17578125,stop
7.065,17.1431910681763,0.222,8492,0.269,8.5005005005005,0.276498652105746,0.15625,8.66,15.0705009870276,0.391,10489,0.444,10.4994994994995,0.315551279524331,0.19921875,stop
7.052,17.6668616341443,0.2295,8447,0.276,8.45545545545546,0.279592574258921,0.203125,9.851,17.2308734543551,0.3935,12225,0.441,12.2372372372372,0.265928925095122,0.203125,stop
7.499,18.2830796093,0.242,9064,0.275,9.07307307307307,0.288610120504268,0.1796875,11.505,21.0363732615677,0.3725,13585,0.4185,13.5985985985986,0.322283616016675,0.1875,stop
6.297,12.8649523901179,0.273,7452,0.303,7.45945945945946,0.264275249660611,0.18359375,8.948,16.8511720660612,0.359,10510,0.41,10.5205205205205,0.335723898884686,0.1796875,stop
5.764,12.2238291872882,0.218,7086,0.254,7.09309309309309,0.271873976745645,0.17578125,9.901,18.9687901564649,0.363,12138,0.4185,12.1501501501502,0.245334615314851,0.23046875,stop
6.984,18.1249551723584,0.198,8280,0.231,8.28828828828829,0.329163849483536,0.1640625,11.743,22.4223326172814,0.371,14376,0.416,14.3903903903904,0.258937658335589,0.171875,stop
9.31,22.082889303712,0.267,11290,0.312,11.3013013013013,0.299429490539709,0.1796875,14.071,25.4570029657853,0.3825,16809,0.42,16.8258258258258,0.306264994272881,0.17578125,stop
6.763,16.2616419835145,0.23,7888,0.261,7.8958958958959,0.273414020836609,0.21484375,10.621,18.9445770604677,0.3815,12583,0.4295,12.5955955955956,0.291131955675266,0.2265625,stop
5.601,14.0781745975819,0.223,6716,0.268,6.72272272272272,0.233470378274219,0.25,10.969,18.7810276609136,0.3895,13182,0.4355,13.1951951951952,0.290048395303205,0.203125,stop
7.75,18.4825863990947,0.214,9248,0.254,9.25725725725726,0.258964997783683,0.1796875,13.012,24.4732507035743,0.385,15276,0.429,15.2912912912913,0.308405271442158,0.17578125,stop
8.116,18.4472220130837,0.2525,9853,0.2845,9.86286286286286,0.27792812951936,0.17578125,10.974,20.4383952403314,0.358,12849,0.4,12.8618618618619,0.332459937977016,0.1796875,stop
7.012,18.9222091733497,0.1955,8191,0.2325,8.1991991991992,0.332509385017332,0.17578125,8.193,20.0214135365114,0.3345,9780,0.38,9.78978978978979,0.279900222014256,0.1953125,stop
6.361,16.2688352379634,0.214,7598,0.247,7.60560560560561,0.248126808808293,0.2265625,8.849,18.9466883649888,0.2995,10314,0.3485,10.3243243243243,0.341871411577706,0.14453125,stop
7.931,17.9048876008759,0.237,9568,0.2725,9.57757757757758,0.27679330933333,0.1953125,8.899,19.0313162970931,0.302,10528,0.3645,10.5385385385385,0.293764452838253,0.15625,stop
7.045,17.6561320792522,0.228,8776,0.2685,8.78478478478479,0.274160251810045,0.21875,9.418,24.7157844301976,0.302,11178,0.3555,11.1891891891892,0.326362401165551,0.1953125,stop
5.395,14.1047864216372,0.205,6676,0.2335,6.68268268268268,0.243705451625877,0.2109375,10.978,23.816506880733,0.304,12892,0.352,12.9049049049049,0.329935058768785,0.16015625,stop
6.346,14.784857118011,0.203,7708,0.228,7.71571571571572,0.250838421369157,0.19921875,9.119,17.6034939713683,0.331,11324,0.39,11.3353353353353,0.267813922277199,0.1875,stop
5.068,13.4756818009331,0.205,6122,0.2475,6.12812812812813,0.286677958213684,0.20703125,6.675,15.4552580049639,0.2855,8086,0.3405,8.09409409409409,0.236673186156684,0.21875,stop
6.748,14.5217767507974,0.2815,8005,0.3195,8.01301301301301,0.254647203215513,0.203125,12.506,22.2286751741979,0.4105,15198,0.443,15.2132132132132,0.304915139863161,0.16796875,stop
5.742,12.9359189855224,0.254,7360,0.3035,7.36736736736737,0.18480558352531,0.23828125,9.101,19.7163637621139,0.3545,11081,0.4095,11.0920920920921,0.272296150304372,0.16796875,stop
6.946,17.058429001523,0.1905,8586,0.234,8.5945945945946,0.254465806463748,0.1796875,10.767,22.5655268052842,0.377,12282,0.4305,12.2942942942943,0.333846083214606,0.16796875,stop
5.028,13.0875513370531,0.184,6097,0.2265,6.1031031031031,0.284391446432779,0.171875,6.161,15.9899656034652,0.2905,7701,0.349,7.70870870870871,0.256395599693046,0.15234375,stop
4.37,12.7997656228542,0.25,5581,0.286,5.58658658658659,0.202253854756813,0.2421875,6.965,15.1107577573065,0.378,8571,0.435,8.57957957957958,0.262362034390075,0.16015625,stop
5.804,12.9467370406601,0.271,7018,0.314,7.02502502502503,0.307930838946061,0.1640625,9.855,19.5646364648056,0.381,11529,0.434,11.5405405405405,0.323956568083803,0.16796875,stop
8.312,19.937953756592,0.2745,10138,0.3235,10.1481481481481,0.3149618836334,0.18359375,9.613,19.4096625421464,0.377,11886,0.42,11.8978978978979,0.278463653211129,0.20703125,stop
6.657,19.4389557332692,0.191,8196,0.2225,8.2042042042042,0.247295372470486,0.23828125,7.573,21.3878703942211,0.296,9185,0.349,9.19419419419419,0.264060760437768,0.15625,stop
7.226,19.1009423851285,0.2405,8742,0.2845,8.75075075075075,0.276631765456183,0.2109375,9.593,22.6953960088825,0.3225,11824,0.3715,11.8358358358358,0.260982246595815,0.20703125,stop
8.209,18.0436415393346,0.2595,10122,0.2985,10.1321321321321,0.263528246200745,0.203125,10.439,23.7095550358922,0.3105,12803,0.36,12.8158158158158,0.251395546632041,0.1875,stop
6.52,16.2798034386168,0.24,7786,0.286,7.79379379379379,0.314671988503524,0.1875,7.495,20.4623801157148,0.289,8938,0.342,8.94694694694695,0.301276087416304,0.1875,stop
5.231,13.185181075738,0.2485,6574,0.2955,6.58058058058058,0.202510113636093,0.2109375,7.146,16.1065825052989,0.3125,8409,0.3665,8.41741741741742,0.348973684336645,0.1796875,stop
7.507,17.9199609374574,0.226,9272,0.268,9.28128128128128,0.27664993844536,0.19140625,7.706,20.1196918465468,0.278,9322,0.336,9.33133133133133,0.28004015668348,0.21875,stop
6.59,15.3763454695841,0.2555,8245,0.2955,8.25325325325325,0.191889925598853,0.17578125,8.138,18.7608102170455,0.3225,9822,0.3775,9.83183183183183,0.303940175699787,0.15625,stop
7.745,17.9511280982561,0.276,9368,0.3205,9.37737737737738,0.29215909776154,0.171875,9.495,22.8283376530136,0.3515,11295,0.3995,11.3063063063063,0.279767070595014,0.1875,stop
6.725,17.1030698998747,0.25,8194,0.2945,8.2022022022022,0.26174811621611,0.171875,8.381,17.6805825695875,0.338,9900,0.3875,9.90990990990991,0.315521584353086,0.16015625,stop
6.352,15.2322683799886,0.2505,7489,0.2935,7.4964964964965,0.292019317724377,0.1640625,8.246,17.2850802717257,0.3295,9806,0.378,9.81581581581582,0.297548676303779,0.19921875,stop
6.41,13.8905723424199,0.305,7998,0.3575,8.00600600600601,0.23231250678205,0.203125,7.455,15.4964189411619,0.3775,9575,0.4235,9.58458458458459,0.183594395424459,0.16015625,stop
5.879,12.6132866454386,0.349,7136,0.398,7.14314314314314,0.28354707809521,0.16015625,6.303,16.552975563324,0.262,7520,0.312,7.52752752752753,0.30441298356645,0.16796875,stop
7.842,16.4799878640732,0.383,9603,0.4395,9.61261261261261,0.256679792859691,0.17578125,7.613,18.9678939263166,0.291,9198,0.343,9.20720720720721,0.306272332261341,0.18359375,stop
6.854,14.3074805608814,0.3125,8543,0.3585,8.55155155155155,0.234077323086312,0.2109375,8.946,23.4923391768466,0.298,10866,0.3515,10.8768768768769,0.310971384227159,0.19921875,stop
6.962,17.7993258299296,0.2535,8576,0.2925,8.58458458458459,0.23156653154521,0.18359375,9.528,22.6377560725439,0.317,11585,0.371,11.5965965965966,0.264275142110693,0.1640625,stop
7.242,15.4345067948412,0.283,9038,0.323,9.04704704704705,0.212298688430987,0.20703125,9.503,23.4702577744685,0.304,11540,0.359,11.5515515515516,0.245249314330514,0.234375,stop
6.165,15.8161626192955,0.2095,7532,0.2385,7.53953953953954,0.272662918289115,0.18359375,7.39,20.705941176387,0.2685,9803,0.329,9.81281281281281,0.207106521459379,0.265625,stop
6.459,17.5650505265428,0.1965,7933,0.2325,7.94094094094094,0.285087054618667,0.21875,7.652,17.8865312456049,0.2705,9029,0.3125,9.03803803803804,0.337596034875065,0.16796875,stop
6.22,15.6222917652949,0.2565,7427,0.2995,7.43443443443443,0.293258123769825,0.17578125,8.681,20.8894949675668,0.278,10338,0.328,10.3483483483483,0.29186166190349,0.203125,stop
5.134,12.4343073791828,0.186,6242,0.225,6.24824824824825,0.262286075152192,0.19921875,7.424,19.2593873215116,0.285,8770,0.341,8.77877877877878,0.308289025047661,0.1875,stop
6.797,16.9182445897912,0.257,8154,0.299,8.16216216216216,0.237329702022053,0.171875,8.145,21.1217660246486,0.264,10158,0.313,10.1681681681682,0.277430952684916,0.1796875,stop
7.005,16.2112615178462,0.233,8780,0.259,8.78878878878879,0.182037403319201,0.23828125,8.515,21.2204382612612,0.284,10820,0.3295,10.8308308308308,0.251137275937339,0.203125,stop
6.706,17.1076591034542,0.2415,8500,0.284,8.50850850850851,0.230136482377286,0.19921875,8.203,21.8162095699505,0.295,9719,0.339,9.72872872872873,0.337470485842046,0.16796875,stop
6.935,16.8997928981393,0.207,8546,0.237,8.55455455455456,0.21727914019413,0.2578125,6.626,17.6314491746992,0.3065,7921,0.35,7.92892892892893,0.2579499764151,0.1875,stop
6.816,17.7367979071759,0.1965,8451,0.2315,8.45945945945946,0.216958100550393,0.17578125,8.598,21.4748224672522,0.285,10715,0.33,10.7257257257257,0.297630088357578,0.16796875,stop
5.853,15.6958274710192,0.209,7412,0.245,7.41941941941942,0.233906239308752,0.2109375,7.177,17.2200754934466,0.3085,9005,0.362,9.01401401401401,0.255054459406675,0.203125,stop
7.805,16.4075287596883,0.238,9782,0.275,9.79179179179179,0.248382488046624,0.21875,8.741,21.1112529235003,0.3195,10459,0.369,10.4694694694695,0.238890316860948,0.21484375,stop
7.213,14.9098289728622,0.251,8842,0.287,8.85085085085085,0.22992040151497,0.1875,8.753,23.6097225735501,0.302,10266,0.3525,10.2762762762763,0.331214559190565,0.16796875,stop
6.163,13.0625035885163,0.2165,7492,0.2525,7.4994994994995,0.263976770973169,0.19140625,6.617,18.2857594865513,0.273,8162,0.317,8.17017017017017,0.266924549851516,0.19921875,stop
6.376,14.7692924678198,0.2265,7655,0.268,7.66266266266266,0.262150752106069,0.23046875,7.787,20.0267071681792,0.3065,9566,0.3625,9.57557557557558,0.250610243346735,0.1953125,stop
4.783,13.2463957361993,0.22,5598,0.259,5.6036036036036,0.308947305703475,0.16015625,7.424,17.3035834438997,0.2625,8827,0.3105,8.83583583583584,0.312180759627342,0.16015625,stop
7.24,20.1293318319312,0.1885,8840,0.23,8.84884884884885,0.232786917613146,0.17578125,5.96,15.2535241829552,0.2815,7290,0.3315,7.2972972972973,0.267610007451062,0.1796875,stop
5.747,15.8390971964945,0.205,7126,0.245,7.13313313313313,0.187016816771175,0.23828125,8.549,20.5225485746776,0.272,10543,0.3175,10.5535535535536,0.263583492742254,0.17578125,stop
7.324,17.3130586552463,0.258,9084,0.3055,9.09309309309309,0.259240112058568,0.18359375,8.567,20.3317731641881,0.3375,10364,0.393,10.3743743743744,0.315397071095159,0.171875,stop
4.279,12.0954123534504,0.188,5348,0.2345,5.35335335335335,0.244025774749826,0.17578125,7.484,19.1649680406725,0.317,9102,0.3755,9.11111111111111,0.26587323355523,0.20703125,stop
5.919,14.7753510956593,0.2445,7199,0.2835,7.20620620620621,0.251196624385312,0.2109375,7.878,17.2777892104285,0.3655,9639,0.4075,9.64864864864865,0.277990291346325,0.18359375,stop
7.389,20.8363864429512,0.261,8758,0.309,8.76676676676677,0.35604783496139,0.19921875,8.478,21.1227839074304,0.348,10278,0.395,10.2882882882883,0.263812724978338,0.2109375,stop
9.521,22.3004708470472,0.244,11720,0.288,11.7317317317317,0.263397903592136,0.171875,9.662,21.6271588517771,0.3595,11565,0.4045,11.5765765765766,0.273875236514329,0.21875,stop
7.944,18.21356637235,0.241,9682,0.289,9.69169169169169,0.270771921247054,0.18359375,10.309,23.8396518430954,0.3375,12755,0.3915,12.7677677677678,0.280464309019503,0.1875,stop
6.512,16.4053040203466,0.19,7936,0.229,7.94394394394394,0.243695323427381,0.1875,8.335,19.6810822873134,0.322,9876,0.3775,9.88588588588589,0.329515327997727,0.20703125,stop
7.619,18.3414012550841,0.2715,9841,0.3215,9.85085085085085,0.197172460620433,0.21484375,11.137,23.757167339563,0.3455,13281,0.4015,13.2942942942943,0.303782943719013,0.16796875,stop
6.418,16.0995652115205,0.254,7712,0.3175,7.71971971971972,0.265927126795687,0.1875,9.98,23.7256822873442,0.345,12146,0.393,12.1581581581582,0.240187751695455,0.1953125,stop
7.553,15.6938522995471,0.298,9230,0.329,9.23923923923924,0.219490311914639,0.19140625,9.219,21.1073210048078,0.329,11304,0.387,11.3153153153153,0.258092205795351,0.16796875,stop
7.914,16.1133485036475,0.277,9290,0.323,9.2992992992993,0.330294697115911,0.16796875,8.929,20.8837496633148,0.356,11056,0.406,11.0670670670671,0.266970203117666,0.1953125,stop
8.629,21.8296358192252,0.248,11024,0.286,11.035035035035,0.194397867920147,0.22265625,10.964,23.6738252084449,0.348,13012,0.3965,13.025025025025,0.327298441514418,0.1640625,stop
7.921,17.9061721202495,0.246,9654,0.285,9.66366366366366,0.238339397118735,0.203125,9.472,21.7222466609695,0.338,11078,0.388,11.0890890890891,0.268784508302867,0.2109375,stop
8.026,19.9092943119539,0.228,9622,0.2755,9.63163163163163,0.258062902425773,0.15625,9.697,20.1393396118145,0.37,11716,0.418,11.7277277277277,0.308408734896597,0.21875,stop
8.937,20.6082265127303,0.234,11138,0.264,11.1491491491492,0.22668516306759,0.2265625,11.187,23.1078125316959,0.333,13212,0.3835,13.2252252252252,0.313716121651546,0.17578125,stop
8.675,18.5706488847321,0.26,10954,0.307,10.964964964965,0.217728496832182,0.2421875,10.248,21.8337353652553,0.3545,12341,0.4045,12.3533533533534,0.263339247721208,0.1875,stop
9.248,20.5831970305878,0.234,11160,0.276,11.1711711711712,0.257563291427253,0.203125,10.746,23.1513714496571,0.312,13170,0.3545,13.1831831831832,0.263334774715875,0.16796875,stop
6.643,16.6566203054521,0.226,8136,0.263,8.14414414414414,0.248202330739827,0.19921875,10.748,22.5756948951743,0.3535,12915,0.392,12.9279279279279,0.303119107502873,0.21875,stop
7.763,18.985073083873,0.272,9610,0.316,9.61961961961962,0.23975890285723,0.1640625,9.374,19.7314976623671,0.3365,11265,0.3895,11.2762762762763,0.303524201941541,0.21484375,stop
9.834,19.7044664987408,0.307,11982,0.348,11.993993993994,0.259327273486939,0.1953125,10.685,23.6989662221794,0.358,13308,0.416,13.3213213213213,0.25466083039134,0.2109375,stop
8.226,16.3491284171359,0.277,10096,0.3155,10.1061061061061,0.242946807640772,0.2109375,10.514,20.0862639632163,0.3685,13160,0.4285,13.1731731731732,0.254774720780707,0.19921875,stop
7.793,18.4972700688507,0.228,9184,0.268,9.19319319319319,0.31270763655724,0.1953125,9.531,20.7798219434142,0.359,11718,0.417,11.7297297297297,0.291586171995565,0.18359375,stop
2.756,4.96648769252477,0.3045,3421,0.3565,3.42442442442442,0.289393996334609,0.16015625,13.889,29.0983676518117,0.3055,17232,0.37,17.2492492492493,0.200045881826749,0.20703125,back
1.931,4.28240586586559,0.233,2450,0.2765,2.45245245245245,0.28528485894113,0.171875,20.518,45.1117279651312,0.293,25378,0.3365,25.4034034034034,0.224777352701057,0.21484375,back
2.473,5.69324160737975,0.22,3158,0.255,3.16116116116116,0.286674901232461,0.1875,21.835,51.0307064422981,0.2855,28370,0.3315,28.3983983983984,0.129829233713073,0.2734375,back
3.078,5.45802161959808,0.336,3828,0.375,3.83183183183183,0.309563627983889,0.1640625,23.744,52.2896739328139,0.2805,30483,0.3335,30.5135135135135,0.184142249946503,0.20703125,back
1.702,3.54711150092579,0.2175,2189,0.2505,2.19119119119119,0.254011056390839,0.18359375,16.044,34.858714835748,0.277,20380,0.343,20.4004004004004,0.20753076376619,0.21484375,back
2.267,4.81321098644138,0.284,2844,0.332,2.84684684684685,0.299692046901233,0.17578125,17.963,38.727315941077,0.277,23460,0.3285,23.4834834834835,0.179555176075741,0.1953125,back
2.355,4.29266816793472,0.321,3052,0.364,3.05505505505505,0.254028400284477,0.1953125,20.88,44.2444120765549,0.341,25632,0.39,25.6576576576577,0.196797816692111,0.21875,back
2.822,4.8551004109081,0.36,3616,0.4115,3.61961961961962,0.241557780417444,0.22265625,24.431,54.1713854354861,0.294,31518,0.344,31.5495495495496,0.16114904082834,0.23828125,back
1.695,3.23310995791977,0.2625,2265,0.3055,2.26726726726727,0.211028369208623,0.1796875,21.983,41.7398011495024,0.3215,28143,0.3845,28.1711711711712,0.225077795931499,0.1875,back
1.834,3.5779882615794,0.299,2440,0.361,2.44244244244244,0.172550905084402,0.203125,22.013,45.1828396628632,0.333,26644,0.381,26.6706706706707,0.26419564763988,0.17578125,back
1.28,2.75499546279118,0.224,1738,0.267,1.73973973973974,0.180295826785799,0.23046875,18.788,37.5883758627584,0.305,24762,0.3595,24.7867867867868,0.1263747425569,0.26953125,back
1.69,3.38526217596215,0.271,2246,0.325,2.24824824824825,0.192493097788148,0.2265625,26.326,52.8392089267052,0.397,33820,0.438,33.8538538538539,0.16472213315946,0.21484375,back
1.19,2.40997925302273,0.238,1606,0.281,1.60760760760761,0.167699150734171,0.21484375,22.928,45.6431593998487,0.343,28214,0.4115,28.2422422422422,0.218759141537384,0.21875,back
1.627,3.01380158603714,0.286,2180,0.335,2.18218218218218,0.160298627669577,0.23046875,21.526,39.9692381713737,0.317,26727,0.365,26.7537537537537,0.221804426886313,0.18359375,back
1.761,3.18323734584778,0.302,2448,0.3475,2.45045045045045,0.150096821171563,0.21484375,23.904,44.58327040494,0.342,29332,0.3925,29.3613613613614,0.197262458727024,0.234375,back
1.953,3.66292233059889,0.26,2534,0.306,2.53653653653654,0.239390912586614,0.16796875,21.327,38.3829258915992,0.3135,26695,0.365,26.7217217217217,0.219297471092153,0.1953125,back
2.261,4.22125573733694,0.337,2940,0.393,2.94294294294294,0.239285519272111,0.203125,16.837,29.9871805943807,0.391,22326,0.441,22.3483483483483,0.126195237500229,0.18359375,back
1.671,3.06022874961987,0.2605,2231,0.2965,2.23323323323323,0.183763249081775,0.20703125,20.85,40.6376918635889,0.321,26574,0.377,26.6006006006006,0.229980227380128,0.171875,back
2.172,3.78470606520506,0.294,2870,0.344,2.87287287287287,0.197640099647287,0.20703125,23.835,42.5343038029306,0.3255,31841,0.3635,31.8728728728729,0.148162838670005,0.22265625,back
1.345,2.68384053177531,0.258,1870,0.295,1.87187187187187,0.132722356220215,0.171875,23.916,43.3516781682094,0.319,31552,0.361,31.5835835835836,0.152764567801458,0.1796875,back
2.561,4.39715817318413,0.315,3382,0.344,3.38538538538539,0.196881809367329,0.25,22.569,43.3494982669927,0.3375,29401,0.396,29.4304304304304,0.191050870538617,0.21484375,back
1.846,4.18616769850421,0.249,2444,0.288,2.44644644644645,0.272591597143251,0.20703125,22.865,45.2448118572727,0.299,29372,0.351,29.4014014014014,0.162340953023658,0.24609375,back
1.613,3.4186254547698,0.269,2138,0.312,2.14014014014014,0.268246205837552,0.16796875,16.121,31.751708615443,0.2925,20617,0.3425,20.6376376376376,0.174711852282572,0.19140625,back
1.026,2.01395134002786,0.242,1420,0.295,1.42142142142142,0.190799644602399,0.19921875,15.08,28.486733754504,0.3065,19237,0.361,19.2562562562563,0.179808421604419,0.16015625,back
1.965,3.25099984620117,0.337,2654,0.38,2.65665665665666,0.212765211823752,0.2265625,23.627,38.3207646061505,0.3495,28673,0.3775,28.7017017017017,0.250461236079318,0.1953125,back
1.655,2.98378953681388,0.269,2230,0.312,2.23223223223223,0.179263109181037,0.1875,26.806,47.9569807223099,0.325,33486,0.362,33.5195195195195,0.178866394780305,0.19921875,back
1.214,2.28823075759417,0.259,1654,0.305,1.65565565565566,0.194584029879738,0.16796875,15.491,27.7954852449098,0.2995,19817,0.3575,19.8368368368368,0.208230645879109,0.17578125,back
4.02,8.06126540935107,0.349,4860,0.389,4.86486486486487,0.335066929558373,0.15625,19.46,34.4809222614477,0.296,23400,0.353,23.4234234234234,0.265055700232097,0.1796875,back
2.074,3.47505395641564,0.3085,2757,0.3545,2.75975975975976,0.181185068719025,0.1953125,21.473,34.5465048883386,0.367,26734,0.41,26.7607607607608,0.22045988622348,0.19140625,back
2.12,3.78126962804823,0.347,2674,0.402,2.67667667667668,0.267000795204075,0.19140625,16.405,29.1648932794207,0.32,20358,0.362,20.3783783783784,0.27569524863266,0.1640625,back
2.227,3.96471940999612,0.2905,2849,0.3315,2.85185185185185,0.244659234367565,0.17578125,20.458,40.5409669346946,0.321,26176,0.373,26.2022022022022,0.18810172919608,0.1796875,back
1.635,2.87906234736242,0.3365,2339,0.3875,2.34134134134134,0.0928928489396189,0.2890625,17.58,32.6607409591393,0.3275,22637,0.3755,22.6596596596597,0.213926553131019,0.22265625,back
1.96,3.67450676962228,0.291,2606,0.3275,2.60860860860861,0.263367516077791,0.1875,25.132,48.0411906596829,0.338,32564,0.382,32.5965965965966,0.14490484676507,0.23828125,back
1.989,4.28917241434755,0.328,2626,0.376,2.62862862862863,0.295536970891244,0.1875,22.906,41.0311101482765,0.359,28938,0.393,28.966966966967,0.175165337491458,0.21875,back
2.031,3.58984679338826,0.296,2716,0.341,2.71871871871872,0.190886964675646,0.1953125,23.995,47.9271008929186,0.3645,30821,0.4105,30.8518518518518,0.20508294271422,0.23046875,back
3.329,5.80094819835516,0.3785,4186,0.4195,4.19019019019019,0.265704812627205,0.203125,17.962,32.8011585161256,0.323,21710,0.386,21.7317317317317,0.280807714858181,0.16796875,back
1.455,2.85184151032276,0.2625,1870,0.3135,1.87187187187187,0.260410920361472,0.171875,18.841,35.7042434452825,0.3305,24515,0.3725,24.5395395395395,0.167580163987637,0.25390625,back
1.461,2.56495613997589,0.303,1968,0.346,1.96996996996997,0.196817772659965,0.2265625,13.707,25.3963186308567,0.342,17948,0.3905,17.965965965966,0.175420239697813,0.19921875,back
1.465,2.73769976440076,0.302,2076,0.348,2.07807807807808,0.148752087511473,0.2734375,23.489,41.6386959449981,0.339,29198,0.399,29.2272272272272,0.182289245083068,0.18359375,back
2.485,5.03537486191445,0.316,3154,0.3735,3.15715715715716,0.264144370969904,0.1875,21.55,37.4051868061102,0.345,26836,0.388,26.8628628628629,0.176313243101322,0.19921875,back
1.763,3.1344856037315,0.299,2366,0.3495,2.36836836836837,0.212009455571103,0.19140625,26.12,46.0714879290869,0.341,32406,0.41,32.4384384384384,0.187303089805402,0.1640625,back
1.865,3.40895878531847,0.289,2438,0.344,2.44044044044044,0.270361979841867,0.18359375,20.534,38.5014545179789,0.333,25646,0.3755,25.6716716716717,0.205178634474942,0.2109375,back
1.445,2.44724334711528,0.319,1928,0.36,1.92992992992993,0.210180583353196,0.203125,18.139,31.0864118225311,0.365,23356,0.406,23.3793793793794,0.179320217574916,0.16796875,back
1.689,3.05761344842673,0.309,2244,0.371,2.24624624624625,0.264823448464606,0.1953125,20.388,35.0285883243958,0.386,26298,0.434,26.3243243243243,0.203729344699274,0.19921875,back
1.522,2.68626134246093,0.32,2086,0.383,2.08808808808809,0.182494756292449,0.2421875,17.886,30.4426674258351,0.3845,22414,0.428,22.4364364364364,0.227334890221473,0.24609375,back
0.983,1.91911437908218,0.285,1494,0.34,1.4954954954955,0.103719550046802,0.2578125,16.747,29.8005536861314,0.372,21362,0.429,21.3833833833834,0.162556689313649,0.2265625,back
1.325,2.40020832429187,0.285,1868,0.341,1.86986986986987,0.137422027017775,0.2734375,16.924,31.5375014863258,0.3385,20880,0.3825,20.9009009009009,0.237688816299483,0.18359375,back
1.367,2.51137412585222,0.257,1814,0.299,1.81581581581582,0.202110618932463,0.203125,24.494,43.7743760663702,0.348,31544,0.397,31.5755755755756,0.183539083884227,0.17578125,back
2.077,3.74392841811913,0.279,2674,0.3205,2.67667667667668,0.211885060987759,0.23828125,30.532,54.5026237900525,0.332,39164,0.367,39.2032032032032,0.176316464016065,0.23046875,back
1.753,3.14149645869608,0.3185,2341,0.3735,2.34334334334334,0.156548753727781,0.2265625,23.738,44.0433195842457,0.348,30672,0.403,30.7027027027027,0.157636829943474,0.2265625,back
1.333,2.34882949572761,0.2955,1817,0.341,1.81881881881882,0.203219173856076,0.1953125,19.505,37.6214433534919,0.3435,24337,0.386,24.3613613613614,0.172297503776541,0.2109375,back
1.962,3.17048892128643,0.3385,2603,0.38,2.60560560560561,0.206724164234532,0.203125,26.155,45.1136232195996,0.3505,33793,0.3965,33.8268268268268,0.18476080975923,0.20703125,back
2.783,5.05084151404496,0.351,3510,0.3925,3.51351351351351,0.332835532759097,0.1796875,20.913,37.0407478326235,0.351,27088,0.394,27.1151151151151,0.195017187742867,0.1875,back
1.306,2.37907545067406,0.2765,1719,0.326,1.72072072072072,0.218551236749117,0.2109375,20.142,38.8177794315955,0.346,26344,0.395,26.3703703703704,0.177232277435314,0.21484375,back
1.716,3.68727541688982,0.283,2304,0.3335,2.30630630630631,0.219878795982367,0.19921875,19.352,37.6697491364092,0.3235,25653,0.369,25.6786786786787,0.142214029257973,0.28125,back
3.789,6.20120955943274,0.361,4740,0.3955,4.74474474474475,0.261732938252724,0.16796875,31.739,52.4354174199081,0.386,40830,0.434,40.8708708708709,0.156428429484127,0.234375,back
1.918,3.45398320783411,0.3175,2598,0.368,2.6006006006006,0.192780356630721,0.24609375,31.684,57.4616219750191,0.3635,40331,0.4095,40.3713713713714,0.191194142958529,0.17578125,back
1.915,3.13033544528378,0.3345,2463,0.3865,2.46546546546547,0.278037906359028,0.1796875,21.765,37.6984217176263,0.361,28474,0.405,28.5025025025025,0.160109881038454,0.20703125,back
9.411,22.5871866331334,0.224,12793,0.269,12.8058058058058,0.124201167183935,0.23046875,1.214,2.41743665894269,0.296,1740,0.355,1.74174174174174,0.117575738260544,0.18359375,front
10.469,26.3186055861628,0.209,13373,0.246,13.3863863863864,0.206423914254945,0.19140625,1.23,2.39332404826425,0.298,1766,0.357,1.76776776776777,0.0996109193533011,0.29296875,front
8.122,22.2421222009052,0.233,10938,0.269,10.9489489489489,0.13385122922924,0.26953125,1.473,2.68495810023173,0.305,2095,0.361,2.0970970970971,0.104476510822403,0.19921875,front
3.826,12.5770425776492,0.1555,4895,0.1905,4.8998998998999,0.130182739805085,0.28125,0.94,2.20590117639028,0.2465,1470,0.3045,1.47147147147147,-0.0195966654583801,0.26171875,front
10.137,25.3256589252876,0.202,12940,0.242,12.952952952953,0.17257392294295,0.2265625,1.926,3.80841174244592,0.333,2782,0.39,2.78478478478478,0.0961111680105831,0.26171875,front
15.164,37.3283806238631,0.2415,18923,0.2795,18.9419419419419,0.201600131590752,0.21875,1.881,3.58427119509671,0.328,2676,0.3965,2.67867867867868,0.102823814753912,0.1796875,front
12.035,29.3464989393965,0.226,14630,0.278,14.6446446446446,0.193981068606154,0.203125,1.652,3.5709942593065,0.3115,2453,0.3705,2.45545545545546,0.125837071706749,0.16796875,front
10.368,27.5451266107092,0.208,13056,0.2425,13.0690690690691,0.155999151163378,0.265625,1.534,2.9748949561287,0.296,2142,0.3495,2.14414414414414,0.130626819139754,0.2265625,front
16.43,36.1928169669066,0.2625,21190,0.2935,21.2112112112112,0.140525119993791,0.23828125,2.345,4.45005617942066,0.3595,3110,0.4075,3.11311311311311,0.24443976765721,0.171875,front
14.47,37.6502589632528,0.234,18075,0.264,18.0930930930931,0.245683712931339,0.21875,2.199,4.20059519592165,0.347,2954,0.412,2.95695695695696,0.170116583569494,0.21875,front
3.947,14.3156208387901,0.2065,4977,0.2605,4.98198198198198,0.149211171924337,0.30859375,1.66,3.17395652144134,0.3405,2301,0.406,2.3033033033033,0.17618852484265,0.1796875,front
7.045,17.419557973726,0.235,9706,0.274,9.71571571571572,0.111496624495699,0.25,3.555,5.65022123460666,0.3975,4669,0.4475,4.67367367367367,0.207618056299384,0.23828125,front
6.445,14.6370420509063,0.234,8198,0.2725,8.20620620620621,0.204324175452343,0.19921875,2.969,4.83952477005749,0.402,4024,0.454,4.02802802802803,0.139794800638248,0.2890625,front
6.531,13.8599062045888,0.2595,8064,0.3055,8.07207207207207,0.200115985202335,0.19921875,2.937,4.80468521341409,0.4,3936,0.454,3.93993993993994,0.171070097932082,0.21875,front
8.017,17.8280397127671,0.2695,9993,0.3155,10.003003003003,0.169174920836562,0.23046875,2.904,5.16778482524186,0.3875,4004,0.443,4.00800800800801,0.0912108782749728,0.28125,front
10.887,21.3661648407008,0.3535,13776,0.4095,13.7897897897898,0.222982190695942,0.15625,2.307,4.38577245191768,0.359,3279,0.422,3.28228228228228,0.127709072117555,0.21875,front
5.208,11.3604577372569,0.247,6519,0.287,6.52552552552553,0.195577140776276,0.2578125,2.071,4.17025179095939,0.325,2772,0.385,2.77477477477477,0.149100060275333,0.16796875,front
8.469,19.312301778918,0.2395,10394,0.2715,10.4044044044044,0.255274446007789,0.171875,2.543,4.67193749958195,0.3335,3547,0.3975,3.55055055055055,0.123398575092535,0.234375,front
5.026,10.1811590695755,0.3105,6533,0.365,6.53953953953954,0.199757273668362,0.2578125,2.382,4.24499705535823,0.361,3442,0.4135,3.44544544544545,0.0514419982175278,0.26171875,front
3.055,7.90676925172349,0.2595,3939,0.3115,3.94294294294294,0.176982593394387,0.25390625,2.021,3.75433083251863,0.334,2803,0.3905,2.80580580580581,0.121849261838222,0.28515625,front
6.506,13.305788214157,0.296,8087,0.348,8.0950950950951,0.242110461533514,0.17578125,2.151,3.46886148469494,0.368,2863,0.423,2.86586586586587,0.163011521322144,0.26953125,front
9.184,19.7082723748176,0.272,12086,0.323,12.0980980980981,0.155628890129248,0.21875,2.539,4.42843087334555,0.3725,3573,0.4245,3.57657657657658,0.0427306643886562,0.2734375,front
10.088,22.8927936259426,0.265,13104,0.3095,13.1171171171171,0.1590987494361,0.23046875,3.567,5.55436765077718,0.392,4778,0.4385,4.78278278278278,0.161842376616751,0.25390625,front
8.09,17.8551393161745,0.2425,10503,0.2845,10.5135135135135,0.176795017849281,0.234375,2.652,4.6617593245469,0.3495,3476,0.411,3.47947947947948,0.211615005238122,0.1953125,front
8.296,20.3165449818615,0.231,10436,0.27,10.4464464464464,0.196162896751413,0.19921875,2.485,4.21580360073854,0.386,3414,0.4455,3.41741741741742,0.134706279540851,0.1875,front
5.57,12.0218135071211,0.283,7504,0.3295,7.51151151151151,0.128827336574612,0.2578125,3.151,4.85396744941702,0.4105,4256,0.4605,4.26026026026026,0.130936219246515,0.1796875,front
6.37,14.4955855349137,0.254,8466,0.291,8.47447447447447,0.11548788347998,0.25390625,2.305,3.90653298974935,0.387,3148,0.4525,3.15115115115115,0.11801317850274,0.203125,front
7.066,16.2252889034371,0.231,9138,0.2705,9.14714714714715,0.19647257237674,0.1953125,2.19,3.9319206502675,0.3305,2975,0.389,2.97797797797798,0.122250872412094,0.2890625,front
11.401,26.4503875207907,0.2685,14717,0.312,14.7317317317317,0.120754122033386,0.171875,3.254,5.23793852579428,0.378,4405,0.433,4.40940940940941,0.145477753464624,0.23046875,front
5.928,13.3417390170847,0.283,7584,0.33,7.59159159159159,0.240668488879002,0.20703125,2.87,4.39704446190848,0.395,3896,0.4435,3.8998998998999,0.166078925664121,0.21484375,front
10.259,21.7687620226783,0.314,13600,0.3795,13.6136136136136,0.129952599108255,0.25,4.026,6.13318840408478,0.433,5260,0.4735,5.26526526526527,0.142507527475125,0.1953125,front
7.315,17.2149063314327,0.2185,9331,0.2615,9.34034034034034,0.102920710284205,0.28515625,1.862,3.53355345226303,0.336,2662,0.394,2.66466466466466,0.0919712751960744,0.26953125,front
7.577,17.3935907736154,0.281,9792,0.331,9.8018018018018,0.1639030168988,0.26171875,2.466,4.33451266003457,0.388,3434,0.4445,3.43743743743744,0.0874463241485442,0.22265625,front
5.322,13.0990075959975,0.237,7026,0.278,7.03303303303303,0.155103100572136,0.234375,1.613,3.14849170238703,0.3165,2311,0.379,2.31331331331331,0.063754238527396,0.2421875,front
6.833,15.5212435068844,0.2995,8869,0.3465,8.87787787787788,0.141951771069674,0.17578125,2.115,4.04190549122564,0.3345,2890,0.3895,2.89289289289289,0.147658076389541,0.2265625,front
6.497,14.4621920883385,0.285,8158,0.332,8.16616616616617,0.241986755127195,0.203125,1.931,4.02554344157407,0.299,2519,0.354,2.52152152152152,0.106391550509054,0.2890625,front
7.2,16.0713409521421,0.3225,9412,0.3815,9.42142142142142,0.147273556891764,0.17578125,2.159,3.94170014080219,0.3545,3035,0.4135,3.03803803803804,0.0324324832776189,0.28125,front
7.799,16.527280478046,0.2925,9938,0.3355,9.94794794794795,0.198944327608587,0.19140625,2.38,4.35660418215839,0.316,3278,0.371,3.28128128128128,0.105273509320564,0.2265625,front
4.807,10.3209980137582,0.3195,6272,0.3755,6.27827827827828,0.154166975054996,0.26171875,2.718,4.38178046004133,0.405,3857,0.454,3.86086086086086,0.142198686230663,0.27734375,front
5.824,14.0022141106326,0.312,7756,0.374,7.76376376376376,0.116676830891215,0.2578125,3.154,4.8822126131499,0.4075,4233,0.458,4.23723723723724,0.191767279262063,0.19140625,front
5.106,13.6841514168764,0.233,6918,0.273,6.92492492492493,0.186410797655903,0.1875,2.529,4.55137341909011,0.3845,3457,0.4405,3.46046046046046,0.0966931255026751,0.2890625,front
10.67,24.523050381223,0.3565,14229,0.405,14.2432432432432,0.0981533341279088,0.2734375,3.425,5.33582233587289,0.399,4665,0.452,4.66966966966967,0.133869663192827,0.25390625,front
8.113,15.3507980248585,0.358,10565,0.403,10.5755755755756,0.14653644499829,0.21875,3.477,5.58005376318186,0.4235,4867,0.469,4.87187187187187,0.0955446048423451,0.2109375,front
4.391,13.1959463472689,0.222,5751,0.2745,5.75675675675676,0.142666045700015,0.2421875,2.851,4.70138277531196,0.3765,3710,0.427,3.71371371371371,0.237202958163336,0.1484375,front
5.267,11.2710691595784,0.3,6747,0.355,6.75375375375375,0.236577954565031,0.2109375,3.874,6.44716992175637,0.39,5304,0.429,5.30930930930931,0.160069139525433,0.1875,front
3.522,9.15325078865427,0.1975,4502,0.244,4.50650650650651,0.238236429421348,0.25,11.472,29.5828328596164,0.302,14610,0.3605,14.6246246246246,0.19432154665035,0.203125,left
2.998,7.89645490077668,0.199,3942,0.242,3.94594594594595,0.18944454164585,0.19921875,14.598,36.1390924069767,0.3435,18709,0.402,18.7277277277277,0.192602026373156,0.21875,left
2.286,5.73480601241228,0.185,2904,0.226,2.90690690690691,0.219158579140794,0.2109375,12.684,32.1165689325619,0.3385,15577,0.405,15.5925925925926,0.273158076490473,0.1640625,left
3.738,7.12193793851084,0.3435,4703,0.4025,4.70770770770771,0.281991420152685,0.1640625,13.309,32.4677840327916,0.359,16300,0.409,16.3163163163163,0.254559589351762,0.20703125,left
2.965,5.99791630485121,0.264,3925,0.307,3.92892892892893,0.189607920364064,0.1953125,18.809,42.8068802881032,0.3235,23406,0.373,23.4294294294294,0.219465569868817,0.24609375,left
3.956,7.00828081629154,0.386,5165,0.436,5.17017017017017,0.203297137571098,0.23828125,17.485,39.1089887366063,0.364,22169,0.411,22.1911911911912,0.218474792910765,0.2265625,left
2.827,5.16497821873432,0.3435,3585,0.406,3.58858858858859,0.228488166135245,0.16796875,8.783,23.2894181979714,0.369,11113,0.433,11.1241241241241,0.174245136669442,0.24609375,left
3.104,6.16749543980375,0.2695,3998,0.3175,4.002002002002,0.211022194895776,0.24609375,16.781,42.2914766826603,0.3245,19697,0.3945,19.7167167167167,0.302536893305555,0.234375,left
3.649,6.06951398383759,0.3845,4717,0.4325,4.72172172172172,0.219982404295157,0.203125,14.456,37.9726217161786,0.333,17990,0.397,18.008008008008,0.229422094922837,0.21484375,left
3.907,7.06321456562095,0.3895,5021,0.446,5.02602602602603,0.215565998279314,0.21484375,12.612,34.6173078098225,0.346,15782,0.41,15.7977977977978,0.232482066404411,0.1875,left
4.805,8.03349239123309,0.39,6115,0.439,6.12112112112112,0.229247989954059,0.1640625,13.948,33.293362701896,0.355,17523,0.41,17.5405405405405,0.211409276792261,0.23046875,left
4.73,9.01620762848771,0.3085,5970,0.3565,5.97597597597598,0.234695952528763,0.2109375,10.144,25.9524950630956,0.353,12902,0.4115,12.9149149149149,0.217856937634079,0.2109375,left
2.019,4.61378369670708,0.1925,2564,0.2325,2.56656656656657,0.229765549996706,0.234375,13.018,29.6481365350337,0.3275,15783,0.3925,15.7987987987988,0.266384448701917,0.20703125,left
1.957,5.32024435529046,0.1585,2387,0.1995,2.38938938938939,0.277542918193112,0.19921875,13.13,35.7899986029617,0.293,16886,0.346,16.9029029029029,0.206877028669555,0.22265625,left
2.043,4.71646053730973,0.198,2618,0.2305,2.62062062062062,0.12416174790406,0.2734375,12.32,31.8518131352047,0.351,16046,0.4125,16.0620620620621,0.210863159913596,0.1796875,left
2.511,6.24011217847885,0.192,3208,0.232,3.21121121121121,0.230943837613144,0.171875,17.005,45.1934840436097,0.318,21632,0.3785,21.6536536536536,0.209458037007875,0.2265625,left
1.686,4.24970587217516,0.2045,2339,0.2475,2.34134134134134,0.138887495118411,0.1875,16.266,40.5916001162802,0.267,20281,0.326,20.3013013013013,0.24948159624556,0.1796875,left
2.616,6.39734319854735,0.214,3399,0.258,3.4024024024024,0.193730818337332,0.2265625,17.87,42.9509953318896,0.317,22487,0.372,22.5095095095095,0.149299082888084,0.26171875,left
3.917,10.9478308353756,0.185,4876,0.227,4.88088088088088,0.28378022723362,0.17578125,14.304,34.2974634630609,0.323,17692,0.383,17.7097097097097,0.222058053504206,0.1640625,left
1.78,4.89550814522864,0.1725,2355,0.209,2.35735735735736,0.184251024941732,0.22265625,10.448,29.3154907855898,0.3165,13669,0.3765,13.6826826826827,0.181127419112662,0.24609375,left
1.798,4.6041285820446,0.164,2248,0.198,2.25025025025025,0.237904616004716,0.19921875,13.034,32.9832381672873,0.3075,16096,0.3705,16.1121121121121,0.26065065950835,0.20703125,left
2.237,5.70692561717778,0.187,2875,0.218,2.87787787787788,0.230530283436043,0.21875,15.106,36.955594975592,0.325,19598,0.384,19.6176176176176,0.197187796894923,0.22265625,left
1.721,4.68454907114868,0.188,2223,0.233,2.22522522522523,0.253013842692635,0.1953125,14.041,36.694727141648,0.338,17217,0.399,17.2342342342342,0.226203553247653,0.2265625,left
1.695,4.8757563515828,0.1545,2308,0.1925,2.31031031031031,0.135320150038237,0.2421875,10.009,28.6108545835318,0.2895,12224,0.3635,12.2362362362362,0.272365352993326,0.19140625,left
2.804,7.47823508590095,0.16,3482,0.192,3.48548548548549,0.274031316258889,0.1953125,11.92,31.292682850788,0.299,15004,0.368,15.019019019019,0.255306186548708,0.16015625,left
2.867,7.17209871655431,0.169,3438,0.203,3.44144144144144,0.25474798013277,0.2265625,12.991,36.4500068587099,0.278,16176,0.338,16.1921921921922,0.241244169798037,0.1796875,left
2.267,6.0607755279337,0.146,2872,0.181,2.87487487487487,0.24163556586384,0.17578125,11.805,29.7714124622934,0.301,14312,0.36,14.3263263263263,0.27102104934689,0.21484375,left
1.886,4.96789693934969,0.16,2378,0.191,2.38038038038038,0.22978007472962,0.2265625,11.655,32.9384729457818,0.285,14946,0.3565,14.960960960961,0.186499522106272,0.23046875,left
2.187,6.01107311550941,0.1445,2731,0.1745,2.73373373373373,0.297685839359049,0.2109375,12.776,33.5214558156414,0.286,15846,0.345,15.8618618618619,0.248925332596894,0.1796875,left
1.296,3.43307442389471,0.1595,1728,0.197,1.72972972972973,0.169899444025393,0.2578125,9.436,24.5766555902141,0.3315,12115,0.398,12.1271271271271,0.185563376054327,0.2109375,left
2.066,5.53172667437573,0.1745,2711,0.2215,2.71371371371371,0.214182464389861,0.203125,12.915,33.6492644793315,0.3175,14901,0.374,14.9159159159159,0.335663275965706,0.15625,left
4.085,9.4792932225984,0.2075,4922,0.2555,4.92692692692693,0.301194497739267,0.18359375,9.448,26.1262703040445,0.3335,11232,0.3985,11.2432432432432,0.30856446131923,0.1640625,left
2.523,5.97620280780363,0.183,3129,0.224,3.13213213213213,0.272760410641998,0.171875,11.942,30.9615891065042,0.32,14227,0.375,14.2412412412412,0.271877967017417,0.21484375,left
1.446,4.29441497761919,0.1605,1952,0.2055,1.95395395395395,0.201008567400499,0.1796875,9.068,28.2779772968294,0.3125,11587,0.38,11.5985985985986,0.226559579018931,0.19921875,left
3.123,7.84735624271003,0.228,3860,0.2705,3.86386386386386,0.186173731650626,0.23828125,12.805,32.959020009703,0.32,14771,0.377,14.7857857857858,0.324953511684604,0.16796875,left
2.536,5.69754333024331,0.191,3110,0.224,3.11311311311311,0.229243496424601,0.15234375,11.418,31.1825271586509,0.326,14453,0.389,14.4674674674675,0.186844141560727,0.22265625,left
1.649,4.52736126236906,0.213,2223,0.265,2.22522522522523,0.208613667958331,0.1640625,9.853,27.4642494891086,0.312,11312,0.368,11.3233233233233,0.352647977196358,0.18359375,left
